id,pressure,x,y,z
0,139576.86045343,0,0,0
0.0001328870292887,139575.67460935,0,0.0001328870292887,0
0.00026577405857741,139574.38960029,0,0.00026577405857741,0
0.00039866108786611,139572.93493865,0,0.00039866108786611,0
0.00053154811715481,139571.26052132,0,0.00053154811715481,0
0.00066443514644351,139569.33073486,0,0.00066443514644351,0
0.00079732217573222,139567.12026534,0,0.00079732217573222,0
0.00093020920502092,139564.61111997,0,0.00093020920502092,0
0.0010630962343096,139561.79050992,0,0.0010630962343096,0
0.0011959832635983,139558.64934548,0,0.0011959832635983,0
0.001328870292887,139555.18116636,0,0.001328870292887,0
0.0014617573221757,139551.3813813,0,0.0014617573221757,0
0.0015946443514644,139547.24672765,0,0.0015946443514644,0
0.0017275313807531,139542.77488719,0,0.0017275313807531,0
0.0018604184100418,139537.96421303,0,0.0018604184100418,0
0.0019933054393305,139532.81353552,0,0.0019933054393305,0
0.0021261924686192,139527.3220243,0,0.0021261924686192,0
0.0022590794979079,139521.48909021,0,0.0022590794979079,0
0.0023919665271967,139515.31431561,0,0.0023919665271967,0
0.0025248535564854,139508.79740478,0,0.0025248535564854,0
0.0026577405857741,139501.93814881,0,0.0026577405857741,0
0.0027906276150628,139494.73640046,0,0.0027906276150628,0
0.0029235146443515,139487.19205649,0,0.0029235146443515,0
0.0030564016736402,139479.30504496,0,0.0030564016736402,0
0.0031892887029289,139471.07531631,0,0.0031892887029289,0
0.0033221757322176,139462.50283701,0,0.0033221757322176,0
0.0034550627615063,139453.5875851,0,0.0034550627615063,0
0.003587949790795,139444.32954703,0,0.003587949790795,0
0.0037208368200837,139434.72871554,0,0.0037208368200837,0
0.0038537238493724,139424.78508819,0,0.0038537238493724,0
0.0039866108786611,139414.49866649,0,0.0039866108786611,0
0.0041194979079498,139403.86945546,0,0.0041194979079498,0
0.0042523849372385,139392.89746354,0,0.0042523849372385,0
0.0043852719665272,139381.58270299,0,0.0043852719665272,0
0.0045181589958159,139369.9251906,0,0.0045181589958159,0
0.0046510460251046,139357.92494902,0,0.0046510460251046,0
0.0047839330543933,139345.58200864,0,0.0047839330543933,0
0.004916820083682,139332.89641051,0,0.004916820083682,0
0.0050497071129707,139319.86821035,0,0.0050497071129707,0
0.0051825941422594,139306.49748436,0,0.0051825941422594,0
0.0053154811715481,139292.7843374,0,0.0053154811715481,0
0.0054483682008368,139278.72891448,0,0.0054483682008368,0
0.0055812552301255,139264.33141702,0,0.0055812552301255,0
0.0057141422594142,139249.59212567,0,0.0057141422594142,0
0.0058470292887029,139234.51143245,0,0.0058470292887029,0
0.0059799163179916,139219.08988595,0,0.0059799163179916,0
0.0061128033472803,139203.32825498,0,0.0061128033472803,0
0.006245690376569,139187.22761805,0,0.006245690376569,0
0.0063785774058577,139170.78948923,0,0.0063785774058577,0
0.0065114644351464,139154.01599533,0,0.0065114644351464,0
0.0066443514644351,139136.91012496,0,0.0066443514644351,0
0.0067772384937238,139119.47607909,0,0.0067772384937238,0
0.0069101255230126,139101.71976408,0,0.0069101255230126,0
0.0070430125523013,139083.64948529,0,0.0070430125523013,0
0.00717589958159,139065.27692279,0,0.00717589958159,0
0.0073087866108787,139046.618504,0,0.0073087866108787,0
0.0074416736401674,139027.69733459,0,0.0074416736401674,0
0.0075745606694561,139008.54591479,0,0.0075745606694561,0
0.0077074476987448,138989.20996059,0,0.0077074476987448,0
0.0078403347280335,138969.75377905,0,0.0078403347280335,0
0.0079732217573222,138950.26783013,0,0.0079732217573222,0
0.0081061087866109,138930.75314311,0,0.0081061087866109,0
0.0082389958158996,138911.12795507,0,0.0082389958158996,0
0.0083718828451883,138891.334416,0,0.0083718828451883,0
0.008504769874477,138871.33159605,0,0.008504769874477,0
0.0086376569037657,138851.09053755,0,0.0086376569037657,0
0.0087705439330544,138830.59075399,0,0.0087705439330544,0
0.0089034309623431,138809.81775286,0,0.0089034309623431,0
0.0090363179916318,138788.7612828,0,0.0090363179916318,0
0.0091692050209205,138767.4140934,0,0.0091692050209205,0
0.0093020920502092,138745.77105767,0,0.0093020920502092,0
0.0094349790794979,138723.8285511,0,0.0094349790794979,0
0.0095678661087866,138701.58401235,0,0.0095678661087866,0
0.0097007531380753,138679.03563236,0,0.0097007531380753,0
0.009833640167364,138656.18213445,0,0.009833640167364,0
0.0099665271966527,138633.02261861,0,0.0099665271966527,0
0.010099414225941,138609.55645144,0,0.010099414225941,0
0.01023230125523,138585.78318824,0,0.01023230125523,0
0.010365188284519,138561.70251782,0,0.010365188284519,0
0.010498075313808,138537.31422354,0,0.010498075313808,0
0.010630962343096,138512.61815568,0,0.010630962343096,0
0.010763849372385,138487.61421193,0,0.010763849372385,0
0.010896736401674,138462.30232349,0,0.010896736401674,0
0.011029623430962,138436.68244535,0,0.011029623430962,0
0.011162510460251,138410.75454928,0,0.011162510460251,0
0.01129539748954,138384.51861892,0,0.01129539748954,0
0.011428284518828,138357.97464624,0,0.011428284518828,0
0.011561171548117,138331.122629,0,0.011561171548117,0
0.011694058577406,138303.96256885,0,0.011694058577406,0
0.011826945606695,138276.49446995,0,0.011826945606695,0
0.011959832635983,138248.71833781,0,0.011959832635983,0
0.012092719665272,138220.63417827,0,0.012092719665272,0
0.012225606694561,138192.24199655,0,0.012225606694561,0
0.012358493723849,138163.54179614,0,0.012358493723849,0
0.012491380753138,138134.53357747,0,0.012491380753138,0
0.012624267782427,138105.21733625,0,0.012624267782427,0
0.012757154811715,138075.59306112,0,0.012757154811715,0
0.012890041841004,138045.66073046,0,0.012890041841004,0
0.013022928870293,138015.42030801,0,0.013022928870293,0
0.013155815899582,137984.87173652,0,0.013155815899582,0
0.01328870292887,137954.01492906,0,0.01328870292887,0
0.013421589958159,137922.84975654,0,0.013421589958159,0
0.013554476987448,137891.37603022,0,0.013554476987448,0
0.013687364016736,137859.59347694,0,0.013687364016736,0
0.013820251046025,137827.50170416,0,0.013820251046025,0
0.013953138075314,137795.10015053,0,0.013953138075314,0
0.014086025104603,137762.38801609,0,0.014086025104603,0
0.014218912133891,137729.36416361,0,0.014218912133891,0
0.01435179916318,137696.02697918,0,0.01435179916318,0
0.014484686192469,137662.37417523,0,0.014484686192469,0
0.014617573221757,137628.4025122,0,0.014617573221757,0
0.014750460251046,137594.10740521,0,0.014750460251046,0
0.014883347280335,137559.48236836,0,0.014883347280335,0
0.015016234309623,137524.51822935,0,0.015016234309623,0
0.015149121338912,137489.20201991,0,0.015149121338912,0
0.015282008368201,137453.51540778,0,0.015282008368201,0
0.01541489539749,137417.43248117,0,0.01541489539749,0
0.015547782426778,137380.91661805,0,0.015547782426778,0
0.015680669456067,137343.91606247,0,0.015680669456067,0
0.015813556485356,137306.35767372,0,0.015813556485356,0
0.015946443514644,137268.13809391,0,0.015946443514644,0
0.016079330543933,137229.25165499,0,0.016079330543933,0
0.016212217573222,137189.7968724,0,0.016212217573222,0
0.01634510460251,137149.84364117,0,0.01634510460251,0
0.016477991631799,137109.44155263,0,0.016477991631799,0
0.016610878661088,137068.62579451,0,0.016610878661088,0
0.016743765690377,137027.42133653,0,0.016743765690377,0
0.016876652719665,136985.84589972,0,0.016876652719665,0
0.017009539748954,136943.91206286,0,0.017009539748954,0
0.017142426778243,136901.62875685,0,0.017142426778243,0
0.017275313807531,136859.00232476,0,0.017275313807531,0
0.01740820083682,136816.03727386,0,0.01740820083682,0
0.017541087866109,136772.73680902,0,0.017541087866109,0
0.017673974895397,136729.10321113,0,0.017673974895397,0
0.017806861924686,136685.13810542,0,0.017806861924686,0
0.017939748953975,136640.84265169,0,0.017939748953975,0
0.018072635983264,136596.21767918,0,0.018072635983264,0
0.018205523012552,136551.26378194,0,0.018205523012552,0
0.018338410041841,136505.98138624,0,0.018338410041841,0
0.01847129707113,136460.37079793,0,0.01847129707113,0
0.018604184100418,136414.43223545,0,0.018604184100418,0
0.018737071129707,136368.16585238,0,0.018737071129707,0
0.018869958158996,136321.57175218,0,0.018869958158996,0
0.019002845188285,136274.64999705,0,0.019002845188285,0
0.019135732217573,136227.40061167,0,0.019135732217573,0
0.019268619246862,136179.8235826,0,0.019268619246862,0
0.019401506276151,136131.91885297,0,0.019401506276151,0
0.019534393305439,136083.68631203,0,0.019534393305439,0
0.019667280334728,136035.12577825,0,0.019667280334728,0
0.019800167364017,135986.23697395,0,0.019800167364017,0
0.019933054393305,135937.01948846,0,0.019933054393305,0
0.020065941422594,135887.47272542,0,0.020065941422594,0
0.020198828451883,135837.59582801,0,0.020198828451883,0
0.020331715481172,135787.38757317,0,0.020331715481172,0
0.02046460251046,135736.84622224,0,0.02046460251046,0
0.020597489539749,135685.96931032,0,0.020597489539749,0
0.020730376569038,135634.75334928,0,0.020730376569038,0
0.020863263598326,135583.1934092,0,0.020863263598326,0
0.020996150627615,135531.28252847,0,0.020996150627615,0
0.021129037656904,135479.01088236,0,0.021129037656904,0
0.021261924686192,135426.3646116,0,0.021261924686192,0
0.021394811715481,135373.32417144,0,0.021394811715481,0
0.02152769874477,135319.86200529,0,0.02152769874477,0
0.021660585774059,135265.93926658,0,0.021660585774059,0
0.021793472803347,135211.50119924,0,0.021793472803347,0
0.021926359832636,135156.47062821,0,0.021926359832636,0
0.022059246861925,135100.73878663,0,0.022059246861925,0
0.022192133891213,135044.15239004,0,0.022192133891213,0
0.022325020920502,134986.49542204,0,0.022325020920502,0
0.022457907949791,134927.46346787,0,0.022457907949791,0
0.022590794979079,134866.62754686,0,0.022590794979079,0
0.022723682008368,134803.38314739,0,0.022723682008368,0
0.022856569037657,134736.87841046,0,0.022856569037657,0
0.022989456066946,134665.91293071,0,0.022989456066946,0
0.023122343096234,134588.79515393,0,0.023122343096234,0
0.023255230125523,134503.14143171,0,0.023255230125523,0
0.023388117154812,134405.59286399,0,0.023388117154812,0
0.0235210041841,134291.41629462,0,0.0235210041841,0
0.023653891213389,134153.94206513,0,0.023653891213389,0
0.023786778242678,133983.77174157,0,0.023786778242678,0
0.023919665271967,133767.66171556,0,0.023919665271967,0
0.024052552301255,133495.43731973,0,0.024052552301255,0
0.024185439330544,133179.43837933,0,0.024185439330544,0
0.024318326359833,132829.09660785,0,0.024318326359833,0
0.024451213389121,132451.6202455,0,0.024451213389121,0
0.02458410041841,132052.51752946,0,0.02458410041841,0
0.024716987447699,131635.99693157,0,0.024716987447699,0
0.024849874476987,131205.27317205,0,0.024849874476987,0
0.024982761506276,130762.80118906,0,0.024982761506276,0
0.025115648535565,130310.45502304,0,0.025115648535565,0
0.025248535564854,129849.66458297,0,0.025248535564854,0
0.025381422594142,129381.52020934,0,0.025381422594142,0
0.025514309623431,128906.85261509,0,0.025514309623431,0
0.02564719665272,128426.2940013,0,0.02564719665272,0
0.025780083682008,127940.32477948,0,0.025780083682008,0
0.025912970711297,127449.3092898,0,0.025912970711297,0
0.026045857740586,126953.52310596,0,0.026045857740586,0
0.026178744769874,126453.17390798,0,0.026178744769874,0
0.026311631799163,125948.41743767,0,0.026311631799163,0
0.026444518828452,125439.36969457,0,0.026444518828452,0
0.026577405857741,124926.11625807,0,0.026577405857741,0
0.026710292887029,124408.7194123,0,0.026710292887029,0
0.026843179916318,123887.22359144,0,0.026843179916318,0
0.026976066945607,123361.65954096,0,0.026976066945607,0
0.027108953974895,122832.04749723,0,0.027108953974895,0
0.027241841004184,122298.3996166,0,0.027241841004184,0
0.027374728033473,121760.72183065,0,0.027374728033473,0
0.027507615062762,121219.01526257,0,0.027507615062762,0
0.02764050209205,120673.27730783,0,0.02764050209205,0
0.027773389121339,120123.5024578,0,0.027773389121339,0
0.027906276150628,119569.6829265,0,0.027906276150628,0
0.028039163179916,119011.80912616,0,0.028039163179916,0
0.028172050209205,118449.87002642,0,0.028172050209205,0
0.028304937238494,117883.85342347,0,0.028304937238494,0
0.028437824267782,117313.74613895,0,0.028437824267782,0
0.028570711297071,116739.5341633,0,0.028570711297071,0
0.02870359832636,116161.2027542,0,0.02870359832636,0
0.028836485355649,115578.73649753,0,0.028836485355649,0
0.028969372384937,114992.11933555,0,0.028969372384937,0
0.029102259414226,114401.33456464,0,0.029102259414226,0
0.029235146443515,113806.36480277,0,0.029235146443515,0
0.029368033472803,113207.19192468,0,0.029368033472803,0
0.029500920502092,112603.7969605,0,0.029500920502092,0
0.029633807531381,111996.15995083,0,0.029633807531381,0
0.029766694560669,111384.25974856,0,0.029766694560669,0
0.029899581589958,110768.07375337,0,0.029899581589958,0
0.030032468619247,110147.57756082,0,0.030032468619247,0
0.030165355648536,109522.74450137,0,0.030165355648536,0
0.030298242677824,108893.54503722,0,0.030298242677824,0
0.030431129707113,108259.94597498,0,0.030431129707113,0
0.030564016736402,107621.90943888,0,0.030564016736402,0
0.03069690376569,106979.39153307,0,0.03069690376569,0
0.030829790794979,106332.34059915,0,0.030829790794979,0
0.030962677824268,105680.69494729,0,0.030962677824268,0
0.031095564853556,105024.37990216,0,0.031095564853556,0
0.031228451882845,104363.30395715,0,0.031228451882845,0
0.031361338912134,103697.3537681,0,0.031361338912134,0
0.031494225941423,103026.38763647,0,0.031494225941423,0
0.031627112970711,102350.22702686,0,0.031627112970711,0
0.03176,101668.64552617,0,0.03176,0
