id,pressure,x,y,z
0,117578.76995276,0,0,0
0.0001328870292887,117578.22115127,0,0.0001328870292887,0
0.00026577405857741,117577.62645769,0,0.00026577405857741,0
0.00039866108786611,117576.95325243,0,0.00039866108786611,0
0.00053154811715481,117576.17835037,0,0.00053154811715481,0
0.00066443514644351,117575.28527282,0,0.00066443514644351,0
0.00079732217573222,117574.26230831,0,0.00079732217573222,0
0.00093020920502092,117573.10113421,0,0.00093020920502092,0
0.0010630962343096,117571.79583695,0,0.0010630962343096,0
0.0011959832635983,117570.34221557,0,0.0011959832635983,0
0.001328870292887,117568.73728669,0,0.001328870292887,0
0.0014617573221757,117566.97893263,0,0.0014617573221757,0
0.0015946443514644,117565.06565126,0,0.0015946443514644,0
0.0017275313807531,117562.99637828,0,0.0017275313807531,0
0.0018604184100418,117560.77036076,0,0.0018604184100418,0
0.0019933054393305,117558.38706739,0,0.0019933054393305,0
0.0021261924686192,117555.84612458,0,0.0021261924686192,0
0.0022590794979079,117553.14727111,0,0.0022590794979079,0
0.0023919665271967,117550.29032583,0,0.0023919665271967,0
0.0025248535564854,117547.27516479,0,0.0025248535564854,0
0.0026577405857741,117544.10170489,0,0.0026577405857741,0
0.0027906276150628,117540.76989234,0,0.0027906276150628,0
0.0029235146443515,117537.2796944,0,0.0029235146443515,0
0.0030564016736402,117533.63109357,0,0.0030564016736402,0
0.0031892887029289,117529.82408342,0,0.0031892887029289,0
0.0033221757322176,117525.85866567,0,0.0033221757322176,0
0.0034550627615063,117521.73484812,0,0.0034550627615063,0
0.003587949790795,117517.45264319,0,0.003587949790795,0
0.0037208368200837,117513.01206694,0,0.0037208368200837,0
0.0038537238493724,117508.41313837,0,0.0038537238493724,0
0.0039866108786611,117503.65587906,0,0.0039866108786611,0
0.0041194979079498,117498.7403129,0,0.0041194979079498,0
0.0042523849372385,117493.66646614,0,0.0042523849372385,0
0.0043852719665272,117488.43436748,0,0.0043852719665272,0
0.0045181589958159,117483.04404846,0,0.0045181589958159,0
0.0046510460251046,117477.49554402,0,0.0046510460251046,0
0.0047839330543933,117471.78889343,0,0.0047839330543933,0
0.004916820083682,117465.9241416,0,0.004916820083682,0
0.0050497071129707,117459.90134092,0,0.0050497071129707,0
0.0051825941422594,117453.72055396,0,0.0051825941422594,0
0.0053154811715481,117447.38185723,0,0.0053154811715481,0
0.0054483682008368,117440.88534649,0,0.0054483682008368,0
0.0055812552301255,117434.23114425,0,0.0055812552301255,0
0.0057141422594142,117427.41941027,0,0.0057141422594142,0
0.0058470292887029,117420.45035641,0,0.0058470292887029,0
0.0059799163179916,117413.32426746,0,0.0059799163179916,0
0.0061128033472803,117406.04153053,0,0.0061128033472803,0
0.006245690376569,117398.60267627,0,0.006245690376569,0
0.0063785774058577,117391.00843696,0,0.0063785774058577,0
0.0065114644351464,117383.25982823,0,0.0065114644351464,0
0.0066443514644351,117375.35826393,0,0.0066443514644351,0
0.0067772384937238,117367.30571789,0,0.0067772384937238,0
0.0069101255230126,117359.10495129,0,0.0069101255230126,0
0.0070430125523013,117350.75983267,0,0.0070430125523013,0
0.00717589958159,117342.27578808,0,0.00717589958159,0
0.0073087866108787,117333.66043431,0,0.0073087866108787,0
0.0074416736401674,117324.92446975,0,0.0074416736401674,0
0.0075745606694561,117316.08292763,0,0.0075745606694561,0
0.0077074476987448,117307.15693909,0,0.0077074476987448,0
0.0078403347280335,117298.17621342,0,0.0078403347280335,0
0.0079732217573222,117289.18252721,0,0.0079732217573222,0
0.0081061087866109,117280.17637761,0,0.0081061087866109,0
0.0082389958158996,117271.12005026,0,0.0082389958158996,0
0.0083718828451883,117261.98687121,0,0.0083718828451883,0
0.008504769874477,117252.75797884,0,0.008504769874477,0
0.0086376569037657,117243.42003964,0,0.0086376569037657,0
0.0087705439330544,117233.96363193,0,0.0087705439330544,0
0.0089034309623431,117224.38210218,0,0.0089034309623431,0
0.0090363179916318,117214.67075579,0,0.0090363179916318,0
0.0091692050209205,117204.82628448,0,0.0091692050209205,0
0.0093020920502092,117194.84636107,0,0.0093020920502092,0
0.0094349790794979,117184.72935283,0,0.0094349790794979,0
0.0095678661087866,117174.47411858,0,0.0095678661087866,0
0.0097007531380753,117164.07986519,0,0.0097007531380753,0
0.009833640167364,117153.54604595,0,0.009833640167364,0
0.0099665271966527,117142.87228876,0,0.0099665271966527,0
0.010099414225941,117132.05834524,0,0.010099414225941,0
0.01023230125523,117121.10405475,0,0.01023230125523,0
0.010365188284519,117110.00931895,0,0.010365188284519,0
0.010498075313808,117098.77408374,0,0.010498075313808,0
0.010630962343096,117087.39832656,0,0.010630962343096,0
0.010763849372385,117075.88204733,0,0.010763849372385,0
0.010896736401674,117064.22526205,0,0.010896736401674,0
0.011029623430962,117052.42799833,0,0.011029623430962,0
0.011162510460251,117040.4902921,0,0.011162510460251,0
0.01129539748954,117028.41218541,0,0.01129539748954,0
0.011428284518828,117016.19372473,0,0.011428284518828,0
0.011561171548117,117003.83495982,0,0.011561171548117,0
0.011694058577406,116991.33594285,0,0.011694058577406,0
0.011826945606695,116978.69672773,0,0.011826945606695,0
0.011959832635983,116965.91736961,0,0.011959832635983,0
0.012092719665272,116952.99792441,0,0.012092719665272,0
0.012225606694561,116939.93844835,0,0.012225606694561,0
0.012358493723849,116926.73899749,0,0.012358493723849,0
0.012491380753138,116913.39962709,0,0.012491380753138,0
0.012624267782427,116899.92039085,0,0.012624267782427,0
0.012757154811715,116886.30133983,0,0.012757154811715,0
0.012890041841004,116872.54252103,0,0.012890041841004,0
0.013022928870293,116858.64397534,0,0.013022928870293,0
0.013155815899582,116844.60573467,0,0.013155815899582,0
0.01328870292887,116830.42781794,0,0.01328870292887,0
0.013421589958159,116816.11022543,0,0.013421589958159,0
0.013554476987448,116801.65293071,0,0.013554476987448,0
0.013687364016736,116787.05586936,0,0.013687364016736,0
0.013820251046025,116772.31892295,0,0.013820251046025,0
0.013953138075314,116757.44189647,0,0.013953138075314,0
0.014086025104603,116742.42448634,0,0.014086025104603,0
0.014218912133891,116727.26623532,0,0.014218912133891,0
0.01435179916318,116711.96646868,0,0.01435179916318,0
0.014484686192469,116696.52420414,0,0.014484686192469,0
0.014617573221757,116680.93802444,0,0.014617573221757,0
0.014750460251046,116665.20589742,0,0.014750460251046,0
0.014883347280335,116649.32492163,0,0.014883347280335,0
0.015016234309623,116633.29096702,0,0.015016234309623,0
0.015149121338912,116617.098167,0,0.015149121338912,0
0.015282008368201,116600.73820088,0,0.015282008368201,0
0.01541489539749,116584.19927964,0,0.01541489539749,0
0.015547782426778,116567.46471298,0,0.015547782426778,0
0.015680669456067,116550.51088418,0,0.015680669456067,0
0.015813556485356,116533.30438853,0,0.015813556485356,0
0.015946443514644,116515.79798962,0,0.015946443514644,0
0.016079330543933,116497.98920647,0,0.016079330543933,0
0.016212217573222,116479.9232792,0,0.016212217573222,0
0.01634510460251,116461.6323317,0,0.01634510460251,0
0.016477991631799,116443.13918259,0,0.016477991631799,0
0.016610878661088,116424.46004897,0,0.016610878661088,0
0.016743765690377,116405.60646464,0,0.016743765690377,0
0.016876652719665,116386.586641,0,0.016876652719665,0
0.017009539748954,116367.40643257,0,0.017009539748954,0
0.017142426778243,116348.07002197,0,0.017142426778243,0
0.017275313807531,116328.58040592,0,0.017275313807531,0
0.01740820083682,116308.93973994,0,0.01740820083682,0
0.017541087866109,116289.14958298,0,0.017541087866109,0
0.017673974895397,116269.21107092,0,0.017673974895397,0
0.017806861924686,116249.12503956,0,0.017806861924686,0
0.017939748953975,116228.89211197,0,0.017939748953975,0
0.018072635983264,116208.51276022,0,0.018072635983264,0
0.018205523012552,116187.98734924,0,0.018205523012552,0
0.018338410041841,116167.31616769,0,0.018338410041841,0
0.01847129707113,116146.4994497,0,0.01847129707113,0
0.018604184100418,116125.53739005,0,0.018604184100418,0
0.018737071129707,116104.4301545,0,0.018737071129707,0
0.018869958158996,116083.17788666,0,0.018869958158996,0
0.019002845188285,116061.78071197,0,0.019002845188285,0
0.019135732217573,116040.2387396,0,0.019135732217573,0
0.019268619246862,116018.55206217,0,0.019268619246862,0
0.019401506276151,115996.72075345,0,0.019401506276151,0
0.019534393305439,115974.74486373,0,0.019534393305439,0
0.019667280334728,115952.62441225,0,0.019667280334728,0
0.019800167364017,115930.35937588,0,0.019800167364017,0
0.019933054393305,115907.94967265,0,0.019933054393305,0
0.020065941422594,115885.39513813,0,0.020065941422594,0
0.020198828451883,115862.69549199,0,0.020198828451883,0
0.020331715481172,115839.85029062,0,0.020331715481172,0
0.02046460251046,115816.85886021,0,0.02046460251046,0
0.020597489539749,115793.72020247,0,0.020597489539749,0
0.020730376569038,115770.43286156,0,0.020730376569038,0
0.020863263598326,115746.99473657,0,0.020863263598326,0
0.020996150627615,115723.40281731,0,0.020996150627615,0
0.021129037656904,115699.65281174,0,0.021129037656904,0
0.021261924686192,115675.73862109,0,0.021261924686192,0
0.021394811715481,115651.65160011,0,0.021394811715481,0
0.02152769874477,115627.37951444,0,0.02152769874477,0
0.021660585774059,115602.90507145,0,0.021660585774059,0
0.021793472803347,115578.20384964,0,0.021793472803347,0
0.021926359832636,115553.2413807,0,0.021926359832636,0
0.022059246861925,115527.96903737,0,0.022059246861925,0
0.022192133891213,115502.31823831,0,0.022192133891213,0
0.022325020920502,115476.19228129,0,0.022325020920502,0
0.022457907949791,115449.454834,0,0.022457907949791,0
0.022590794979079,115421.91371469,0,0.022590794979079,0
0.022723682008368,115393.29803479,0,0.022723682008368,0
0.022856569037657,115363.22598711,0,0.022856569037657,0
0.022989456066946,115331.15945104,0,0.022989456066946,0
0.023122343096234,115296.34001972,0,0.023122343096234,0
0.023255230125523,115257.698846,0,0.023255230125523,0
0.023388117154812,115213.72959247,0,0.023388117154812,0
0.0235210041841,115162.30938583,0,0.0235210041841,0
0.023653891213389,115100.44649647,0,0.023653891213389,0
0.023786778242678,115023.92475538,0,0.023786778242678,0
0.023919665271967,114926.80245201,0,0.023919665271967,0
0.024052552301255,114804.52665253,0,0.024052552301255,0
0.024185439330544,114662.69633461,0,0.024185439330544,0
0.024318326359833,114505.59715514,0,0.024318326359833,0
0.024451213389121,114336.50990336,0,0.024451213389121,0
0.02458410041841,114157.94652176,0,0.02458410041841,0
0.024716987447699,113971.83070181,0,0.024716987447699,0
0.024849874476987,113779.63606944,0,0.024849874476987,0
0.024982761506276,113582.49191946,0,0.024982761506276,0
0.025115648535565,113381.26411914,0,0.025115648535565,0
0.025248535564854,113176.61701207,0,0.025248535564854,0
0.025381422594142,112969.06078405,0,0.025381422594142,0
0.025514309623431,112758.98770505,0,0.025514309623431,0
0.02564719665272,112546.69985974,0,0.02564719665272,0
0.025780083682008,112332.43036532,0,0.025780083682008,0
0.025912970711297,112116.35960638,0,0.025912970711297,0
0.026045857740586,111898.62765693,0,0.026045857740586,0
0.026178744769874,111679.34378524,0,0.026178744769874,0
0.026311631799163,111458.5937265,0,0.026311631799163,0
0.026444518828452,111236.44524779,0,0.026444518828452,0
0.026577405857741,111012.95240628,0,0.026577405857741,0
0.026710292887029,110788.15880779,0,0.026710292887029,0
0.026843179916318,110562.10010028,0,0.026843179916318,0
0.026976066945607,110334.80588225,0,0.026976066945607,0
0.027108953974895,110106.30116331,0,0.027108953974895,0
0.027241841004184,109876.60748207,0,0.027241841004184,0
0.027374728033473,109645.74376202,0,0.027374728033473,0
0.027507615062762,109413.7269667,0,0.027507615062762,0
0.02764050209205,109180.57260142,0,0.02764050209205,0
0.027773389121339,108946.29509737,0,0.027773389121339,0
0.027906276150628,108710.90810583,0,0.027906276150628,0
0.028039163179916,108474.42472329,0,0.028039163179916,0
0.028172050209205,108236.8576637,0,0.028172050209205,0
0.028304937238494,107998.21938994,0,0.028304937238494,0
0.028437824267782,107758.52221385,0,0.028437824267782,0
0.028570711297071,107517.77837183,0,0.028570711297071,0
0.02870359832636,107276.00008121,0,0.02870359832636,0
0.028836485355649,107033.19958125,0,0.028836485355649,0
0.028969372384937,106789.38916158,0,0.028969372384937,0
0.029102259414226,106544.58117974,0,0.029102259414226,0
0.029235146443515,106298.7880691,0,0.029235146443515,0
0.029368033472803,106052.02233731,0,0.029368033472803,0
0.029500920502092,105804.29655505,0,0.029500920502092,0
0.029633807531381,105555.62333403,0,0.029633807531381,0
0.029766694560669,105306.01529248,0,0.029766694560669,0
0.029899581589958,105055.48500541,0,0.029899581589958,0
0.030032468619247,104804.04493576,0,0.030032468619247,0
0.030165355648536,104551.70734161,0,0.030165355648536,0
0.030298242677824,104298.48415219,0,0.030298242677824,0
0.030431129707113,104044.38680402,0,0.030431129707113,0
0.030564016736402,103789.426025,0,0.030564016736402,0
0.03069690376569,103533.611551,0,0.03069690376569,0
0.030829790794979,103276.95175451,0,0.030829790794979,0
0.030962677824268,103019.45315873,0,0.030962677824268,0
0.031095564853556,102761.11980225,0,0.031095564853556,0
0.031228451882845,102501.95240906,0,0.031228451882845,0
0.031361338912134,102241.94730446,0,0.031361338912134,0
0.031494225941423,101981.09499983,0,0.031494225941423,0
0.031627112970711,101719.37834533,0,0.031627112970711,0
0.03176,101456.770119,0,0.03176,0
