id,pressure,x,y,z
0,465124.63764202,0,0,0
0.0001328870292887,465117.11177391,0,0.0001328870292887,0
0.00026577405857741,465108.95653738,0,0.00026577405857741,0
0.00039866108786611,465099.72454089,0,0.00039866108786611,0
0.00053154811715481,465089.09774118,0,0.00053154811715481,0
0.00066443514644351,465076.85003304,0,0.00066443514644351,0
0.00079732217573222,465062.82065704,0,0.00079732217573222,0
0.00093020920502092,465046.89529705,0,0.00093020920502092,0
0.0010630962343096,465028.99264385,0,0.0010630962343096,0
0.0011959832635983,465009.05484423,0,0.0011959832635983,0
0.001328870292887,464987.04071208,0,0.001328870292887,0
0.0014617573221757,464962.9209026,0,0.0014617573221757,0
0.0015946443514644,464936.67448209,0,0.0015946443514644,0
0.0017275313807531,464908.28648973,0,0.0017275313807531,0
0.0018604184100418,464877.74620441,0,0.0018604184100418,0
0.0019933054393305,464845.04591281,0,0.0019933054393305,0
0.0021261924686192,464810.18003369,0,0.0021261924686192,0
0.0022590794979079,464773.14449551,0,0.0022590794979079,0
0.0023919665271967,464733.93629398,0,0.0023919665271967,0
0.0025248535564854,464692.55317759,0,0.0025248535564854,0
0.0026577405857741,464648.99342416,0,0.0026577405857741,0
0.0027906276150628,464603.25568194,0,0.0027906276150628,0
0.0029235146443515,464555.33885683,0,0.0029235146443515,0
0.0030564016736402,464505.24203218,0,0.0030564016736402,0
0.0031892887029289,464452.96441196,0,0.0031892887029289,0
0.0033221757322176,464398.5052805,0,0.0033221757322176,0
0.0034550627615063,464341.86397401,0,0.0034550627615063,0
0.003587949790795,464283.03986077,0,0.003587949790795,0
0.0037208368200837,464222.03232731,0,0.0037208368200837,0
0.0038537238493724,464158.84076935,0,0.0038537238493724,0
0.0039866108786611,464093.46458604,0,0.0039866108786611,0
0.0041194979079498,464025.9031772,0,0.0041194979079498,0
0.0042523849372385,463956.15594296,0,0.0042523849372385,0
0.0043852719665272,463884.22228588,0,0.0043852719665272,0
0.0045181589958159,463810.10161582,0,0.0045181589958159,0
0.0046510460251046,463733.79335809,0,0.0046510460251046,0
0.0047839330543933,463655.29696585,0,0.0047839330543933,0
0.004916820083682,463574.61193825,0,0.004916820083682,0
0.0050497071129707,463491.73784645,0,0.0050497071129707,0
0.0051825941422594,463406.67437048,0,0.0051825941422594,0
0.0053154811715481,463319.4213515,0,0.0053154811715481,0
0.0054483682008368,463229.97886538,0,0.0054483682008368,0
0.0055812552301255,463138.34732638,0,0.0055812552301255,0
0.0057141422594142,463044.5276331,0,0.0057141422594142,0
0.0058470292887029,462948.5213739,0,0.0058470292887029,0
0.0059799163179916,462850.33111584,0,0.0059799163179916,0
0.0061128033472803,462749.96081134,0,0.0061128033472803,0
0.006245690376569,462647.41637003,0,0.006245690376569,0
0.0063785774058577,462542.70646347,0,0.0063785774058577,0
0.0065114644351464,462435.84365693,0,0.0065114644351464,0
0.0066443514644351,462326.84600158,0,0.0066443514644351,0
0.0067772384937238,462215.73927428,0,0.0067772384937238,0
0.0069101255230126,462102.56012804,0,0.0069101255230126,0
0.0070430125523013,461987.36052393,0,0.0070430125523013,0
0.00717589958159,461870.21396518,0,0.00717589958159,0
0.0073087866108787,461751.22426643,0,0.0073087866108787,0
0.0074416736401674,461630.53788926,0,0.0074416736401674,0
0.0075745606694561,461508.3612939,0,0.0075745606694561,0
0.0077074476987448,461384.98534708,0,0.0077074476987448,0
0.0078403347280335,461260.81965547,0,0.0078403347280335,0
0.0079732217573222,461136.44086006,0,0.0079732217573222,0
0.0081061087866109,461011.85485298,0,0.0081061087866109,0
0.0082389958158996,460886.53903342,0,0.0082389958158996,0
0.0083718828451883,460760.12333273,0,0.0083718828451883,0
0.008504769874477,460632.34559761,0,0.008504769874477,0
0.0086376569037657,460503.02002201,0,0.0086376569037657,0
0.0087705439330544,460372.0148118,0,0.0087705439330544,0
0.0089034309623431,460239.23638194,0,0.0089034309623431,0
0.0090363179916318,460104.61817556,0,0.0090363179916318,0
0.0091692050209205,459968.11275318,0,0.0091692050209205,0
0.0093020920502092,459829.68619563,0,0.0093020920502092,0
0.0094349790794979,459689.31414407,0,0.0094349790794979,0
0.0095678661087866,459546.97899809,0,0.0095678661087866,0
0.0097007531380753,459402.6679334,0,0.0097007531380753,0
0.009833640167364,459256.37149925,0,0.009833640167364,0
0.0099665271966527,459108.08262602,0,0.0099665271966527,0
0.010099414225941,458957.79592317,0,0.010099414225941,0
0.01023230125523,458805.50718234,0,0.01023230125523,0
0.010365188284519,458651.21302588,0,0.010365188284519,0
0.010498075313808,458494.91065809,0,0.010498075313808,0
0.010630962343096,458336.59768916,0,0.010630962343096,0
0.010763849372385,458176.27201053,0,0.010763849372385,0
0.010896736401674,458013.93170668,0,0.010896736401674,0
0.011029623430962,457849.57499257,0,0.011029623430962,0
0.011162510460251,457683.20016922,0,0.011162510460251,0
0.01129539748954,457514.80559216,0,0.01129539748954,0
0.011428284518828,457344.3896488,0,0.011428284518828,0
0.011561171548117,457171.95074211,0,0.011561171548117,0
0.011694058577406,456997.48727854,0,0.011694058577406,0
0.011826945606695,456820.99765889,0,0.011826945606695,0
0.011959832635983,456642.48027082,0,0.011959832635983,0
0.012092719665272,456461.93348236,0,0.012092719665272,0
0.012225606694561,456279.3556354,0,0.012225606694561,0
0.012358493723849,456094.74503858,0,0.012358493723849,0
0.012491380753138,455908.09995857,0,0.012491380753138,0
0.012624267782427,455719.41860893,0,0.012624267782427,0
0.012757154811715,455528.69913488,0,0.012757154811715,0
0.012890041841004,455335.93959253,0,0.012890041841004,0
0.013022928870293,455141.13791976,0,0.013022928870293,0
0.013155815899582,454944.29189547,0,0.013155815899582,0
0.01328870292887,454745.39908219,0,0.01328870292887,0
0.013421589958159,454544.4567451,0,0.013421589958159,0
0.013554476987448,454341.46173786,0,0.013554476987448,0
0.013687364016736,454136.41034132,0,0.013687364016736,0
0.013820251046025,453929.29803576,0,0.013820251046025,0
0.013953138075314,453720.11917916,0,0.013953138075314,0
0.014086025104603,453508.8665527,0,0.014086025104603,0
0.014218912133891,453295.53071869,0,0.014218912133891,0
0.01435179916318,453080.09911343,0,0.01435179916318,0
0.014484686192469,452862.55476557,0,0.014484686192469,0
0.014617573221757,452642.87448547,0,0.014617573221757,0
0.014750460251046,452421.02630689,0,0.014750460251046,0
0.014883347280335,452196.96587263,0,0.014883347280335,0
0.015016234309623,451970.63132785,0,0.015016234309623,0
0.015149121338912,451741.93610515,0,0.015149121338912,0
0.015282008368201,451510.75873086,0,0.015282008368201,0
0.01541489539749,451276.92842288,0,0.01541489539749,0
0.015547782426778,451040.20474239,0,0.015547782426778,0
0.015680669456067,450800.2488449,0,0.015680669456067,0
0.015813556485356,450556.58286215,0,0.015813556485356,0
0.015946443514644,450308.53251548,0,0.015946443514644,0
0.016079330543933,450056.05725933,0,0.016079330543933,0
0.016212217573222,449799.79269883,0,0.016212217573222,0
0.01634510460251,449540.18888924,0,0.01634510460251,0
0.016477991631799,449277.56426516,0,0.016477991631799,0
0.016610878661088,449012.14389353,0,0.016610878661088,0
0.016743765690377,448744.08660675,0,0.016743765690377,0
0.016876652719665,448473.5042482,0,0.016876652719665,0
0.017009539748954,448200.47532318,0,0.017009539748954,0
0.017142426778243,447925.05468136,0,0.017142426778243,0
0.017275313807531,447647.28038427,0,0.017275313807531,0
0.01740820083682,447367.17857628,0,0.01740820083682,0
0.017541087866109,447084.76693913,0,0.017541087866109,0
0.017673974895397,446800.05714182,0,0.017673974895397,0
0.017806861924686,446513.05657767,0,0.017806861924686,0
0.017939748953975,446223.76959554,0,0.017939748953975,0
0.018072635983264,445932.19837211,0,0.018072635983264,0
0.018205523012552,445638.34352883,0,0.018205523012552,0
0.018338410041841,445342.20456749,0,0.018338410041841,0
0.01847129707113,445043.78017603,0,0.01847129707113,0
0.018604184100418,444743.06844121,0,0.018604184100418,0
0.018737071129707,444440.06699347,0,0.018737071129707,0
0.018869958158996,444134.77310127,0,0.018869958158996,0
0.019002845188285,443827.1837263,0,0.019002845188285,0
0.019135732217573,443517.2955459,0,0.019135732217573,0
0.019268619246862,443205.10494582,0,0.019268619246862,0
0.019401506276151,442890.60798209,0,0.019401506276151,0
0.019534393305439,442573.80030786,0,0.019534393305439,0
0.019667280334728,442254.67705631,0,0.019667280334728,0
0.019800167364017,441933.232666,0,0.019800167364017,0
0.019933054393305,441609.46062774,0,0.019933054393305,0
0.020065941422594,441283.35312322,0,0.020065941422594,0
0.020198828451883,440954.90051227,0,0.020198828451883,0
0.020331715481172,440624.09060821,0,0.020331715481172,0
0.02046460251046,440290.90765516,0,0.02046460251046,0
0.020597489539749,439955.33088595,0,0.020597489539749,0
0.020730376569038,439617.33248972,0,0.020730376569038,0
0.020863263598326,439276.8747478,0,0.020863263598326,0
0.020996150627615,438933.90599822,0,0.020996150627615,0
0.021129037656904,438588.35494987,0,0.021129037656904,0
0.021261924686192,438240.12267172,0,0.021261924686192,0
0.021394811715481,437889.07130641,0,0.021394811715481,0
0.02152769874477,437535.00816906,0,0.02152769874477,0
0.021660585774059,437177.66334436,0,0.021660585774059,0
0.021793472803347,436816.65812375,0,0.021793472803347,0
0.021926359832636,436451.46053737,0,0.021926359832636,0
0.022059246861925,436081.32270444,0,0.022059246861925,0
0.022192133891213,435705.19256836,0,0.022192133891213,0
0.022325020920502,435321.58954369,0,0.022325020920502,0
0.022457907949791,434928.4293202,0,0.022457907949791,0
0.022590794979079,434522.77703724,0,0.022590794979079,0
0.022723682008368,434100.49954309,0,0.022723682008368,0
0.022856569037657,433655.77548137,0,0.022856569037657,0
0.022989456066946,433180.40507957,0,0.022989456066946,0
0.023122343096234,432662.83775202,0,0.023122343096234,0
0.023255230125523,432086.80215342,0,0.023255230125523,0
0.023388117154812,431429.37615747,0,0.023388117154812,0
0.0235210041841,430658.26779598,0,0.0235210041841,0
0.023653891213389,429727.9845965,0,0.023653891213389,0
0.023786778242678,428574.43690258,0,0.023786778242678,0
0.023919665271967,427107.33507376,0,0.023919665271967,0
0.024052552301255,425256.85802607,0,0.024052552301255,0
0.024185439330544,423104.72710682,0,0.024185439330544,0
0.024318326359833,420713.13266741,0,0.024318326359833,0
0.024451213389121,418129.34913322,0,0.024451213389121,0
0.02458410041841,415389.25742239,0,0.02458410041841,0
0.024716987447699,412520.03324658,0,0.024716987447699,0
0.024849874476987,409542.19862456,0,0.024849874476987,0
0.024982761506276,406471.18722245,0,0.024982761506276,0
0.025115648535565,403318.53848602,0,0.025115648535565,0
0.025248535564854,400092.8083233,0,0.025248535564854,0
0.025381422594142,396800.26332647,0,0.025381422594142,0
0.025514309623431,393445.40966573,0,0.025514309623431,0
0.02564719665272,390031.39568073,0,0.02564719665272,0
0.025780083682008,386560.31794971,0,0.025780083682008,0
0.025912970711297,383033.45355489,0,0.025912970711297,0
0.026045857740586,379451.43586887,0,0.026045857740586,0
0.026178744769874,375814.38706488,0,0.026178744769874,0
0.026311631799163,372122.01740234,0,0.026311631799163,0
0.026444518828452,368373.69892888,0,0.026444518828452,0
0.026577405857741,364568.51939297,0,0.026577405857741,0
0.026710292887029,360705.32074427,0,0.026710292887029,0
0.026843179916318,356782.72550798,0,0.026843179916318,0
0.026976066945607,352799.15347538,0,0.026976066945607,0
0.027108953974895,348752.83049509,0,0.027108953974895,0
0.027241841004184,344641.79063071,0,0.027241841004184,0
0.027374728033473,340463.87253419,0,0.027374728033473,0
0.027507615062762,336216.71054112,0,0.027507615062762,0
0.02764050209205,331897.72070147,0,0.02764050209205,0
0.027773389121339,327504.08169777,0,0.027773389121339,0
0.027906276150628,323032.71035678,0,0.027906276150628,0
0.028039163179916,318480.23121505,0,0.028039163179916,0
0.028172050209205,313842.93934136,0,0.028172050209205,0
0.028304937238494,309116.75533614,0,0.028304937238494,0
0.028437824267782,304297.17110655,0,0.028437824267782,0
0.028570711297071,299379.18464186,0,0.028570711297071,0
0.02870359832636,294357.221572,0,0.02870359832636,0
0.028836485355649,289225.04076523,0,0.028836485355649,0
0.028969372384937,283975.6205914,0,0.028969372384937,0
0.029102259414226,278601.02172333,0,0.029102259414226,0
0.029235146443515,273092.22145197,0,0.029235146443515,0
0.029368033472803,267438.91342832,0,0.029368033472803,0
0.029500920502092,261629.26550085,0,0.029500920502092,0
0.029633807531381,255649.62688085,0,0.029633807531381,0
0.029766694560669,249484.17424495,0,0.029766694560669,0
0.029899581589958,243114.48460789,0,0.029899581589958,0
0.030032468619247,236519.02094954,0,0.030032468619247,0
0.030165355648536,229672.51482291,0,0.030165355648536,0
0.030298242677824,222545.22880132,0,0.030298242677824,0
0.030431129707113,215102.08116487,0,0.030431129707113,0
0.030564016736402,207301.61656766,0,0.030564016736402,0
0.03069690376569,199094.81105863,0,0.03069690376569,0
0.030829790794979,190423.71025073,0,0.030829790794979,0
0.030962677824268,181219.91984013,0,0.030962677824268,0
0.031095564853556,171403.0051816,0,0.031095564853556,0
0.031228451882845,160878.92348457,0,0.031228451882845,0
0.031361338912134,149538.73001975,0,0.031361338912134,0
0.031494225941423,137258.00786542,0,0.031494225941423,0
0.031627112970711,123897.84383386,0,0.031627112970711,0
0.03176,109308.86077785,0,0.03176,0
