id,pressure,x,y,z
0,144871.93472169,0,0,0
0.0001328870292887,144870.60793111,0,0.0001328870292887,0
0.00026577405857741,144869.17018868,0,0.00026577405857741,0
0.00039866108786611,144867.54262815,0,0.00039866108786611,0
0.00053154811715481,144865.66919029,0,0.00053154811715481,0
0.00066443514644351,144863.51002749,0,0.00066443514644351,0
0.00079732217573222,144861.03681555,0,0.00079732217573222,0
0.00093020920502092,144858.22942127,0,0.00093020920502092,0
0.0010630962343096,144855.0735337,0,0.0010630962343096,0
0.0011959832635983,144851.55898036,0,0.0011959832635983,0
0.001328870292887,144847.6785304,0,0.001328870292887,0
0.0014617573221757,144843.42704391,0,0.0014617573221757,0
0.0015946443514644,144838.80086718,0,0.0015946443514644,0
0.0017275313807531,144833.79740286,0,0.0017275313807531,0
0.0018604184100418,144828.41480444,0,0.0018604184100418,0
0.0019933054393305,144822.6517591,0,0.0019933054393305,0
0.0021261924686192,144816.50733329,0,0.0021261924686192,0
0.0022590794979079,144809.98086305,0,0.0022590794979079,0
0.0023919665271967,144803.07187599,0,0.0023919665271967,0
0.0025248535564854,144795.7800359,0,0.0025248535564854,0
0.0026577405857741,144788.1051033,0,0.0026577405857741,0
0.0027906276150628,144780.04690748,0,0.0027906276150628,0
0.0029235146443515,144771.60532661,0,0.0029235146443515,0
0.0030564016736402,144762.78027359,0,0.0030564016736402,0
0.0031892887029289,144753.57168607,0,0.0031892887029289,0
0.0033221757322176,144743.9795193,0,0.0033221757322176,0
0.0034550627615063,144734.00374118,0,0.0034550627615063,0
0.003587949790795,144723.64432874,0,0.003587949790795,0
0.0037208368200837,144712.90126571,0,0.0037208368200837,0
0.0038537238493724,144701.77454091,0,0.0038537238493724,0
0.0039866108786611,144690.26414729,0,0.0039866108786611,0
0.0041194979079498,144678.37008139,0,0.0041194979079498,0
0.0042523849372385,144666.09234332,0,0.0042523849372385,0
0.0043852719665272,144653.43093712,0,0.0043852719665272,0
0.0045181589958159,144640.3858716,0,0.0045181589958159,0
0.0046510460251046,144626.95716182,0,0.0046510460251046,0
0.0047839330543933,144613.14483122,0,0.0047839330543933,0
0.004916820083682,144598.94891483,0,0.004916820083682,0
0.0050497071129707,144584.36946381,0,0.0050497071129707,0
0.0051825941422594,144569.40655197,0,0.0051825941422594,0
0.0053154811715481,144554.06028483,0,0.0053154811715481,0
0.0054483682008368,144538.33081262,0,0.0054483682008368,0
0.0055812552301255,144522.21834837,0,0.0055812552301255,0
0.0057141422594142,144505.7231935,0,0.0057141422594142,0
0.0058470292887029,144488.84577381,0,0.0058470292887029,0
0.0059799163179916,144471.5866901,0,0.0059799163179916,0
0.0061128033472803,144453.94678936,0,0.0061128033472803,0
0.006245690376569,144435.927265,0,0.006245690376569,0
0.0063785774058577,144417.52979774,0,0.0063785774058577,0
0.0065114644351464,144398.75675393,0,0.0065114644351464,0
0.0066443514644351,144379.61146445,0,0.0066443514644351,0
0.0067772384937238,144360.09861705,0,0.0067772384937238,0
0.0069101255230126,144340.22480838,0,0.0069101255230126,0
0.0070430125523013,144319.9993204,0,0.0070430125523013,0
0.00717589958159,144299.43521272,0,0.00717589958159,0
0.0073087866108787,144278.55085917,0,0.0073087866108787,0
0.0074416736401674,144257.37210942,0,0.0074416736401674,0
0.0075745606694561,144235.93532968,0,0.0075745606694561,0
0.0077074476987448,144214.29168039,0,0.0077074476987448,0
0.0078403347280335,144192.51313355,0,0.0078403347280335,0
0.0079732217573222,144170.70093764,0,0.0079732217573222,0
0.0081061087866109,144148.85623542,0,0.0081061087866109,0
0.0082389958158996,144126.88749324,0,0.0082389958158996,0
0.0083718828451883,144104.72994362,0,0.0083718828451883,0
0.008504769874477,144082.33775796,0,0.008504769874477,0
0.0086376569037657,144059.67850806,0,0.0086376569037657,0
0.0087705439330544,144036.72924737,0,0.0087705439330544,0
0.0089034309623431,144013.47373816,0,0.0089034309623431,0
0.0090363179916318,143989.90048956,0,0.0090363179916318,0
0.0091692050209205,143966.0013694,0,0.0091692050209205,0
0.0093020920502092,143941.77062194,0,0.0093020920502092,0
0.0094349790794979,143917.20417288,0,0.0094349790794979,0
0.0095678661087866,143892.29913764,0,0.0095678661087866,0
0.0097007531380753,143867.05347338,0,0.0097007531380753,0
0.009833640167364,143841.46573283,0,0.009833640167364,0
0.0099665271966527,143815.5348901,0,0.0099665271966527,0
0.010099414225941,143789.2602174,0,0.010099414225941,0
0.01023230125523,143762.64119787,0,0.01023230125523,0
0.010365188284519,143735.67746385,0,0.010365188284519,0
0.010498075313808,143708.36875319,0,0.010498075313808,0
0.010630962343096,143680.71487842,0,0.010630962343096,0
0.010763849372385,143652.7157048,0,0.010763849372385,0
0.010896736401674,143624.37113489,0,0.010896736401674,0
0.011029623430962,143595.68109757,0,0.011029623430962,0
0.011162510460251,143566.64554025,0,0.011162510460251,0
0.01129539748954,143537.26442333,0,0.01129539748954,0
0.011428284518828,143507.53771629,0,0.011428284518828,0
0.011561171548117,143477.4653948,0,0.011561171548117,0
0.011694058577406,143447.04743861,0,0.011694058577406,0
0.011826945606695,143416.28383002,0,0.011826945606695,0
0.011959832635983,143385.17455256,0,0.011959832635983,0
0.012092719665272,143353.71958984,0,0.012092719665272,0
0.012225606694561,143321.91892452,0,0.012225606694561,0
0.012358493723849,143289.77253702,0,0.012358493723849,0
0.012491380753138,143257.28040408,0,0.012491380753138,0
0.012624267782427,143224.44249685,0,0.012624267782427,0
0.012757154811715,143191.25877827,0,0.012757154811715,0
0.012890041841004,143157.72919954,0,0.012890041841004,0
0.013022928870293,143123.8536951,0,0.013022928870293,0
0.013155815899582,143089.63217563,0,0.013155815899582,0
0.01328870292887,143055.06451824,0,0.01328870292887,0
0.013421589958159,143020.15055248,0,0.013421589958159,0
0.013554476987448,142984.89004075,0,0.013554476987448,0
0.013687364016736,142949.28265051,0,0.013687364016736,0
0.013820251046025,142913.3279151,0,0.013820251046025,0
0.013953138075314,142877.02517832,0,0.013953138075314,0
0.014086025104603,142840.37351616,0,0.014086025104603,0
0.014218912133891,142803.3716262,0,0.014218912133891,0
0.01435179916318,142766.01767133,0,0.01435179916318,0
0.014484686192469,142728.30905891,0,0.014484686192469,0
0.014617573221757,142690.2421287,0,0.014617573221757,0
0.014750460251046,142651.811712,0,0.014750460251046,0
0.014883347280335,142613.01050857,0,0.014883347280335,0
0.015016234309623,142573.82820627,0,0.015016234309623,0
0.015149121338912,142534.25023714,0,0.015149121338912,0
0.015282008368201,142494.25601964,0,0.015282008368201,0
0.01541489539749,142453.81647497,0,0.01541489539749,0
0.015547782426778,142412.89051756,0,0.015547782426778,0
0.015680669456067,142371.42009614,0,0.015680669456067,0
0.015813556485356,142329.3231867,0,0.015813556485356,0
0.015946443514644,142286.48389156,0,0.015946443514644,0
0.016079330543933,142242.89580711,0,0.016079330543933,0
0.016212217573222,142198.6693061,0,0.016212217573222,0
0.01634510460251,142153.88268426,0,0.01634510460251,0
0.016477991631799,142108.59148169,0,0.016477991631799,0
0.016610878661088,142062.83509554,0,0.016610878661088,0
0.016743765690377,142016.64147109,0,0.016743765690377,0
0.016876652719665,141970.03042963,0,0.016876652719665,0
0.017009539748954,141923.01602928,0,0.017009539748954,0
0.017142426778243,141875.60823969,0,0.017142426778243,0
0.017275313807531,141827.81413009,0,0.017275313807531,0
0.01740820083682,141779.63871208,0,0.01740820083682,0
0.017541087866109,141731.08553741,0,0.017541087866109,0
0.017673974895397,141682.15712205,0,0.017673974895397,0
0.017806861924686,141632.85524686,0,0.017806861924686,0
0.017939748953975,141583.18117082,0,0.017939748953975,0
0.018072635983264,141533.13578211,0,0.018072635983264,0
0.018205523012552,141482.71970501,0,0.018205523012552,0
0.018338410041841,141431.93337542,0,0.018338410041841,0
0.01847129707113,141380.77709396,0,0.01847129707113,0
0.018604184100418,141329.2510629,0,0.018604184100418,0
0.018737071129707,141277.35541141,0,0.018737071129707,0
0.018869958158996,141225.09021217,0,0.018869958158996,0
0.019002845188285,141172.45549113,0,0.019002845188285,0
0.019135732217573,141119.45123182,0,0.019135732217573,0
0.019268619246862,141066.07737449,0,0.019268619246862,0
0.019401506276151,141012.33381025,0,0.019401506276151,0
0.019534393305439,140958.22036921,0,0.019534393305439,0
0.019667280334728,140903.73680146,0,0.019667280334728,0
0.019800167364017,140848.88274852,0,0.019800167364017,0
0.019933054393305,140793.65770185,0,0.019933054393305,0
0.020065941422594,140738.06094356,0,0.020065941422594,0
0.020198828451883,140682.09146222,0,0.020198828451883,0
0.020331715481172,140625.74783383,0,0.020331715481172,0
0.02046460251046,140569.02805369,0,0.02046460251046,0
0.020597489539749,140511.92929937,0,0.020597489539749,0
0.020730376569038,140454.44759647,0,0.020730376569038,0
0.020863263598326,140396.57734754,0,0.020863263598326,0
0.020996150627615,140338.3106682,0,0.020996150627615,0
0.021129037656904,140279.63645155,0,0.021129037656904,0
0.021261924686192,140220.53904981,0,0.021261924686192,0
0.021394811715481,140160.99641652,0,0.021394811715481,0
0.02152769874477,140100.97748862,0,0.02152769874477,0
0.021660585774059,140040.43849751,0,0.021660585774059,0
0.021793472803347,139979.31777081,0,0.021793472803347,0
0.021926359832636,139917.52840743,0,0.021926359832636,0
0.022059246861925,139854.94795577,0,0.022059246861925,0
0.022192133891213,139791.4038692,0,0.022192133891213,0
0.022325020920502,139726.65301096,0,0.022325020920502,0
0.022457907949791,139660.35277426,0,0.022457907949791,0
0.022590794979079,139592.02038715,0,0.022590794979079,0
0.022723682008368,139520.9755685,0,0.022723682008368,0
0.022856569037657,139446.25972388,0,0.022856569037657,0
0.022989456066946,139366.52208364,0,0.022989456066946,0
0.023122343096234,139279.8592593,0,0.023122343096234,0
0.023255230125523,139183.58916145,0,0.023255230125523,0
0.023388117154812,139073.93242659,0,0.023388117154812,0
0.0235210041841,138945.56351513,0,0.0235210041841,0
0.023653891213389,138790.97816379,0,0.023653891213389,0
0.023786778242678,138599.60206467,0,0.023786778242678,0
0.023919665271967,138356.53491876,0,0.023919665271967,0
0.024052552301255,138050.3237167,0,0.024052552301255,0
0.024185439330544,137694.82257762,0,0.024185439330544,0
0.024318326359833,137300.61760489,0,0.024318326359833,0
0.024451213389121,136875.79655755,0,0.024451213389121,0
0.02458410041841,136426.53725575,0,0.02458410041841,0
0.024716987447699,135957.5574053,0,0.024716987447699,0
0.024849874476987,135472.45847703,0,0.024849874476987,0
0.024982761506276,134973.98859031,0,0.024982761506276,0
0.025115648535565,134464.24347517,0,0.025115648535565,0
0.025248535564854,133944.8200953,0,0.025248535564854,0
0.025381422594142,133416.93408077,0,0.025381422594142,0
0.025514309623431,132881.50949377,0,0.025514309623431,0
0.02564719665272,132339.2474437,0,0.02564719665272,0
0.025780083682008,131790.67853347,0,0.025780083682008,0
0.025912970711297,131236.20294542,0,0.025912970711297,0
0.026045857740586,130676.1210787,0,0.026045857740586,0
0.026178744769874,130110.65696375,0,0.026178744769874,0
0.026311631799163,129539.97615569,0,0.026311631799163,0
0.026444518828452,128964.19940712,0,0.026444518828452,0
0.026577405857741,128383.41311502,0,0.026577405857741,0
0.026710292887029,127797.67730148,0,0.026710292887029,0
0.026843179916318,127207.03170947,0,0.026843179916318,0
0.026976066945607,126611.50045763,0,0.026976066945607,0
0.027108953974895,126011.09559348,0,0.027108953974895,0
0.027241841004184,125405.81980444,0,0.027241841004184,0
0.027374728033473,124795.66848485,0,0.027374728033473,0
0.027507615062762,124180.63131038,0,0.027507615062762,0
0.02764050209205,123560.69343547,0,0.02764050209205,0
0.027773389121339,122935.83640204,0,0.027773389121339,0
0.027906276150628,122306.03882682,0,0.027906276150628,0
0.028039163179916,121671.27691841,0,0.028039163179916,0
0.028172050209205,121031.52486308,0,0.028172050209205,0
0.028304937238494,120386.75510862,0,0.028304937238494,0
0.028437824267782,119736.93856833,0,0.028437824267782,0
0.028570711297071,119082.04476137,0,0.028570711297071,0
0.02870359832636,118422.04190119,0,0.02870359832636,0
0.028836485355649,117756.89694007,0,0.028836485355649,0
0.028969372384937,117086.5755746,0,0.028969372384937,0
0.029102259414226,116411.04221438,0,0.029102259414226,0
0.029235146443515,115730.25991328,0,0.029235146443515,0
0.029368033472803,115044.19026052,0,0.029368033472803,0
0.029500920502092,114352.79322556,0,0.029500920502092,0
0.029633807531381,113656.02694791,0,0.029633807531381,0
0.029766694560669,112953.84745908,0,0.029766694560669,0
0.029899581589958,112246.20831928,0,0.029899581589958,0
0.030032468619247,111533.06014541,0,0.030032468619247,0
0.030165355648536,110814.34999964,0,0.030165355648536,0
0.030298242677824,110090.02059814,0,0.030298242677824,0
0.030431129707113,109360.00928685,0,0.030431129707113,0
0.030564016736402,108624.2467155,0,0.030564016736402,0
0.03069690376569,107882.65511978,0,0.03069690376569,0
0.030829790794979,107135.14609458,0,0.030829790794979,0
0.030962677824268,106381.61770581,0,0.030962677824268,0
0.031095564853556,105621.95074271,0,0.031095564853556,0
0.031228451882845,104856.00385251,0,0.031228451882845,0
0.031361338912134,104083.60722222,0,0.031361338912134,0
0.031494225941423,103304.55437123,0,0.031494225941423,0
0.031627112970711,102518.59148786,0,0.031627112970711,0
0.03176,101725.40357228,0,0.03176,0
