id,pressure,x,y,z
0,124578.62036703,0,0,0
0.0001328870292887,124577.85830168,0,0.0001328870292887,0
0.00026577405857741,124577.03251016,0,0.00026577405857741,0
0.00039866108786611,124576.09769605,0,0.00039866108786611,0
0.00053154811715481,124575.0216633,0,0.00053154811715481,0
0.00066443514644351,124573.78152805,0,0.00066443514644351,0
0.00079732217573222,124572.36102583,0,0.00079732217573222,0
0.00093020920502092,124570.74859756,0,0.00093020920502092,0
0.0010630962343096,124568.93602902,0,0.0010630962343096,0
0.0011959832635983,124566.91748376,0,0.0011959832635983,0
0.001328870292887,124564.68881569,0,0.001328870292887,0
0.0014617573221757,124562.24708046,0,0.0014617573221757,0
0.0015946443514644,124559.5901881,0,0.0015946443514644,0
0.0017275313807531,124556.71665622,0,0.0017275313807531,0
0.0018604184100418,124553.62543445,0,0.0018604184100418,0
0.0019933054393305,124550.31577974,0,0.0019933054393305,0
0.0021261924686192,124546.78716772,0,0.0021261924686192,0
0.0022590794979079,124543.03922962,0,0.0022590794979079,0
0.0023919665271967,124539.07170753,0,0.0023919665271967,0
0.0025248535564854,124534.88442254,0,0.0025248535564854,0
0.0026577405857741,124530.47725212,0,0.0026577405857741,0
0.0027906276150628,124525.85011402,0,0.0027906276150628,0
0.0029235146443515,124521.00295489,0,0.0029235146443515,0
0.0030564016736402,124515.93574212,0,0.0030564016736402,0
0.0031892887029289,124510.64845809,0,0.0031892887029289,0
0.0033221757322176,124505.14109616,0,0.0033221757322176,0
0.0034550627615063,124499.41365769,0,0.0034550627615063,0
0.003587949790795,124493.46615012,0,0.003587949790795,0
0.0037208368200837,124487.29858554,0,0.0037208368200837,0
0.0038537238493724,124480.91097978,0,0.0038537238493724,0
0.0039866108786611,124474.30335181,0,0.0039866108786611,0
0.0041194979079498,124467.47572349,0,0.0041194979079498,0
0.0042523849372385,124460.42811953,0,0.0042523849372385,0
0.0043852719665272,124453.1605677,0,0.0043852719665272,0
0.0045181589958159,124445.67309931,0,0.0045181589958159,0
0.0046510460251046,124437.96575005,0,0.0046510460251046,0
0.0047839330543933,124430.03856121,0,0.0047839330543933,0
0.004916820083682,124421.89158155,0,0.004916820083682,0
0.0050497071129707,124413.52486987,0,0.0050497071129707,0
0.0051825941422594,124404.93849872,0,0.0051825941422594,0
0.0053154811715481,124396.13255967,0,0.0053154811715481,0
0.0054483682008368,124387.10717068,0,0.0054483682008368,0
0.0055812552301255,124377.86248648,0,0.0055812552301255,0
0.0057141422594142,124368.39871326,0,0.0057141422594142,0
0.0058470292887029,124358.71612925,0,0.0058470292887029,0
0.0059799163179916,124348.81511374,0,0.0059799163179916,0
0.0061128033472803,124338.69618783,0,0.0061128033472803,0
0.006245690376569,124328.36007188,0,0.006245690376569,0
0.0063785774058577,124317.8077662,0,0.0063785774058577,0
0.0065114644351464,124307.04066466,0,0.0065114644351464,0
0.0066443514644351,124296.06071447,0,0.0066443514644351,0
0.0067772384937238,124284.87064096,0,0.0067772384937238,0
0.0069101255230126,124273.47426378,0,0.0069101255230126,0
0.0070430125523013,124261.87694181,0,0.0070430125523013,0
0.00717589958159,124250.08619891,0,0.00717589958159,0
0.0073087866108787,124238.11260432,0,0.0073087866108787,0
0.0074416736401674,124225.97101115,0,0.0074416736401674,0
0.0075745606694561,124213.68229865,0,0.0075745606694561,0
0.0077074476987448,124201.2758232,0,0.0077074476987448,0
0.0078403347280335,124188.7928663,0,0.0078403347280335,0
0.0079732217573222,124176.29148503,0,0.0079732217573222,0
0.0081061087866109,124163.77235889,0,0.0081061087866109,0
0.0082389958158996,124151.18305219,0,0.0082389958158996,0
0.0083718828451883,124138.48647379,0,0.0083718828451883,0
0.008504769874477,124125.65639032,0,0.008504769874477,0
0.0086376569037657,124112.67425131,0,0.0086376569037657,0
0.0087705439330544,124099.52694279,0,0.0087705439330544,0
0.0089034309623431,124086.2051977,0,0.0089034309623431,0
0.0090363179916318,124072.70247119,0,0.0090363179916318,0
0.0091692050209205,124059.01414475,0,0.0091692050209205,0
0.0093020920502092,124045.1369631,0,0.0093020920502092,0
0.0094349790794979,124031.06863575,0,0.0094349790794979,0
0.0095678661087866,124016.80755502,0,0.0095678661087866,0
0.0097007531380753,124002.35259659,0,0.0097007531380753,0
0.009833640167364,123987.70297834,0,0.009833640167364,0
0.0099665271966527,123972.85816042,0,0.0099665271966527,0
0.010099414225941,123957.81777467,0,0.010099414225941,0
0.01023230125523,123942.58157451,0,0.01023230125523,0
0.010365188284519,123927.14939963,0,0.010365188284519,0
0.010498075313808,123911.52115093,0,0.010498075313808,0
0.010630962343096,123895.69677277,0,0.010630962343096,0
0.010763849372385,123879.67624048,0,0.010763849372385,0
0.010896736401674,123863.45955146,0,0.010896736401674,0
0.011029623430962,123847.04671886,0,0.011029623430962,0
0.011162510460251,123830.43776716,0,0.011162510460251,0
0.01129539748954,123813.63272901,0,0.01129539748954,0
0.011428284518828,123796.63164289,0,0.011428284518828,0
0.011561171548117,123779.43455156,0,0.011561171548117,0
0.011694058577406,123762.04150081,0,0.011694058577406,0
0.011826945606695,123744.45253857,0,0.011826945606695,0
0.011959832635983,123726.66771417,0,0.011959832635983,0
0.012092719665272,123708.6870777,0,0.012092719665272,0
0.012225606694561,123690.51067938,0,0.012225606694561,0
0.012358493723849,123672.13856887,0,0.012358493723849,0
0.012491380753138,123653.57079443,0,0.012491380753138,0
0.012624267782427,123634.80740183,0,0.012624267782427,0
0.012757154811715,123615.84843287,0,0.012757154811715,0
0.012890041841004,123596.69392335,0,0.012890041841004,0
0.013022928870293,123577.34390024,0,0.013022928870293,0
0.013155815899582,123557.79837773,0,0.013155815899582,0
0.01328870292887,123538.05735154,0,0.01328870292887,0
0.013421589958159,123518.12079109,0,0.013421589958159,0
0.013554476987448,123497.98862825,0,0.013554476987448,0
0.013687364016736,123477.66074161,0,0.013687364016736,0
0.013820251046025,123457.13693411,0,0.013820251046025,0
0.013953138075314,123436.41690158,0,0.013953138075314,0
0.014086025104603,123415.50018813,0,0.014086025104603,0
0.014218912133891,123394.38612324,0,0.014218912133891,0
0.01435179916318,123373.07373282,0,0.01435179916318,0
0.014484686192469,123351.56161347,0,0.014484686192469,0
0.014617573221757,123329.84775495,0,0.014617573221757,0
0.014750460251046,123307.92928911,0,0.014750460251046,0
0.014883347280335,123285.8021353,0,0.014883347280335,0
0.015016234309623,123263.4604992,0,0.015016234309623,0
0.015149121338912,123240.89616464,0,0.015149121338912,0
0.015282008368201,123218.09749288,0,0.015282008368201,0
0.01541489539749,123195.04800861,0,0.01541489539749,0
0.015547782426778,123171.7244017,0,0.015547782426778,0
0.015680669456067,123148.09370365,0,0.015680669456067,0
0.015813556485356,123124.10929769,0,0.015813556485356,0
0.015946443514644,123099.70528079,0,0.015946443514644,0
0.016079330543933,123074.87813466,0,0.016079330543933,0
0.016212217573222,123049.6908645,0,0.016212217573222,0
0.01634510460251,123024.18819496,0,0.01634510460251,0
0.016477991631799,122998.40188183,0,0.016477991631799,0
0.016610878661088,122972.35448046,0,0.016610878661088,0
0.016743765690377,122946.06201922,0,0.016743765690377,0
0.016876652719665,122919.5358962,0,0.016876652719665,0
0.017009539748954,122892.78422479,0,0.017009539748954,0
0.017142426778243,122865.81278829,0,0.017142426778243,0
0.017275313807531,122838.62571718,0,0.017275313807531,0
0.01740820083682,122811.22596947,0,0.01740820083682,0
0.017541087866109,122783.61567162,0,0.017541087866109,0
0.017673974895397,122755.79636024,0,0.017673974895397,0
0.017806861924686,122727.76915358,0,0.017806861924686,0
0.017939748953975,122699.53487307,0,0.017939748953975,0
0.018072635983264,122671.09412954,0,0.018072635983264,0
0.018205523012552,122642.44738413,0,0.018205523012552,0
0.018338410041841,122613.59499142,0,0.018338410041841,0
0.01847129707113,122584.53722969,0,0.01847129707113,0
0.018604184100418,122555.27432203,0,0.018604184100418,0
0.018737071129707,122525.80645076,0,0.018737071129707,0
0.018869958158996,122496.13376691,0,0.018869958158996,0
0.019002845188285,122466.25639591,0,0.019002845188285,0
0.019135732217573,122436.17443999,0,0.019135732217573,0
0.019268619246862,122405.88797793,0,0.019268619246862,0
0.019401506276151,122375.39706172,0,0.019401506276151,0
0.019534393305439,122344.70171002,0,0.019534393305439,0
0.019667280334728,122313.80189757,0,0.019667280334728,0
0.019800167364017,122282.69753921,0,0.019800167364017,0
0.019933054393305,122251.38846671,0,0.019933054393305,0
0.020065941422594,122219.87439565,0,0.020065941422594,0
0.020198828451883,122188.1548783,0,0.020198828451883,0
0.020331715481172,122156.22923706,0,0.020331715481172,0
0.02046460251046,122124.09647046,0,0.02046460251046,0
0.020597489539749,122091.75512051,0,0.020597489539749,0
0.020730376569038,122059.20308577,0,0.020730376569038,0
0.020863263598326,122026.43735777,0,0.020863263598326,0
0.020996150627615,121993.45364957,0,0.020996150627615,0
0.021129037656904,121960.2458723,0,0.021129037656904,0
0.021261924686192,121926.80539738,0,0.021261924686192,0
0.021394811715481,121893.12001693,0,0.021394811715481,0
0.02152769874477,121859.17247863,0,0.02152769874477,0
0.021660585774059,121824.93842103,0,0.021660585774059,0
0.021793472803347,121790.38346405,0,0.021793472803347,0
0.021926359832636,121755.45910864,0,0.021926359832636,0
0.022059246861925,121720.09695876,0,0.022059246861925,0
0.022192133891213,121684.20057863,0,0.022192133891213,0
0.022325020920502,121647.63401805,0,0.022325020920502,0
0.022457907949791,121610.20564198,0,0.022457907949791,0
0.022590794979079,121571.64534303,0,0.022590794979079,0
0.022723682008368,121531.5724289,0,0.022723682008368,0
0.022856569037657,121489.45036917,0,0.022856569037657,0
0.022989456066946,121444.52302376,0,0.022989456066946,0
0.023122343096234,121395.72477562,0,0.023122343096234,0
0.023255230125523,121341.55388893,0,0.023255230125523,0
0.023388117154812,121279.89404442,0,0.023388117154812,0
0.0235210041841,121207.76284598,0,0.0235210041841,0
0.023653891213389,121120.95741478,0,0.023653891213389,0
0.023786778242678,121013.5549593,0,0.023786778242678,0
0.023919665271967,120877.20898222,0,0.023919665271967,0
0.024052552301255,120705.51775003,0,0.024052552301255,0
0.024185439330544,120506.31423246,0,0.024185439330544,0
0.024318326359833,120285.59101957,0,0.024318326359833,0
0.024451213389121,120047.93295808,0,0.024451213389121,0
0.02458410041841,119796.8481005,0,0.02458410041841,0
0.024716987447699,119535.02086512,0,0.024716987447699,0
0.024849874476987,119264.50569013,0,0.024849874476987,0
0.024982761506276,118986.87516819,0,0.024982761506276,0
0.025115648535565,118703.33336026,0,0.025115648535565,0
0.025248535564854,118414.80247322,0,0.025248535564854,0
0.025381422594142,118121.98916208,0,0.025381422594142,0
0.025514309623431,117825.43524616,0,0.025514309623431,0
0.02564719665272,117525.55650291,0,0.02564719665272,0
0.025780083682008,117222.67234207,0,0.025780083682008,0
0.025912970711297,116917.02850385,0,0.025912970711297,0
0.026045857740586,116608.81442133,0,0.026045857740586,0
0.026178744769874,116298.17650132,0,0.026178744769874,0
0.026311631799163,115985.22828332,0,0.026311631799163,0
0.026444518828452,115670.05821067,0,0.026444518828452,0
0.026577405857741,115352.73557529,0,0.026577405857741,0
0.026710292887029,115033.3150654,0,0.026710292887029,0
0.026843179916318,114711.84024479,0,0.026843179916318,0
0.026976066945607,114388.34621492,0,0.026976066945607,0
0.027108953974895,114062.8616519,0,0.027108953974895,0
0.027241841004184,113735.4103654,0,0.027241841004184,0
0.027374728033473,113406.01249191,0,0.027374728033473,0
0.027507615062762,113074.68540826,0,0.027507615062762,0
0.02764050209205,112741.44443108,0,0.02764050209205,0
0.027773389121339,112406.30335249,0,0.027773389121339,0
0.027906276150628,112069.27485039,0,0.027906276150628,0
0.028039163179916,111730.37080251,0,0.028039163179916,0
0.028172050209205,111389.60252675,0,0.028172050209205,0
0.028304937238494,111046.98096453,0,0.028304937238494,0
0.028437824267782,110702.51682023,0,0.028437824267782,0
0.028570711297071,110356.22066621,0,0.028570711297071,0
0.02870359832636,110008.10302059,0,0.02870359832636,0
0.028836485355649,109658.17440299,0,0.028836485355649,0
0.028969372384937,109306.44537182,0,0.028969372384937,0
0.029102259414226,108952.92654529,0,0.029102259414226,0
0.029235146443515,108597.62860717,0,0.029235146443515,0
0.029368033472803,108240.56229731,0,0.029368033472803,0
0.029500920502092,107881.7383857,0,0.029500920502092,0
0.029633807531381,107521.1676277,0,0.029633807531381,0
0.029766694560669,107158.86069673,0,0.029766694560669,0
0.029899581589958,106794.8280892,0,0.029899581589958,0
0.030032468619247,106429.07999418,0,0.030032468619247,0
0.030165355648536,106061.62611816,0,0.030165355648536,0
0.030298242677824,105692.47545178,0,0.030298242677824,0
0.030431129707113,105321.63596144,0,0.030431129707113,0
0.030564016736402,104949.11418331,0,0.030564016736402,0
0.03069690376569,104574.91469027,0,0.03069690376569,0
0.030829790794979,104199.03939354,0,0.030829790794979,0
0.030962677824268,103821.48662873,0,0.030962677824268,0
0.031095564853556,103442.24996099,0,0.031095564853556,0
0.031228451882845,103061.3166241,0,0.031228451882845,0
0.031361338912134,102678.66548221,0,0.031361338912134,0
0.031494225941423,102294.26436938,0,0.031494225941423,0
0.031627112970711,101908.06661806,0,0.031627112970711,0
0.03176,101520.00653016,0,0.03176,0
