id,pressure,x,y,z
0,200831.89046889,0,0,0
0.0001328870292887,200829.24350421,0,0.0001328870292887,0
0.00026577405857741,200826.37518469,0,0.00026577405857741,0
0.00039866108786611,200823.12816286,0,0.00039866108786611,0
0.00053154811715481,200819.39058805,0,0.00053154811715481,0
0.00066443514644351,200815.0829485,0,0.00066443514644351,0
0.00079732217573222,200810.14871848,0,0.00079732217573222,0
0.00093020920502092,200804.54770995,0,0.00093020920502092,0
0.0010630962343096,200798.25134682,0,0.0010630962343096,0
0.0011959832635983,200791.23930585,0,0.0011959832635983,0
0.001328870292887,200783.49712882,0,0.001328870292887,0
0.0014617573221757,200775.01452533,0,0.0014617573221757,0
0.0015946443514644,200765.78416635,0,0.0015946443514644,0
0.0017275313807531,200755.80082666,0,0.0017275313807531,0
0.0018604184100418,200745.06077533,0,0.0018604184100418,0
0.0019933054393305,200733.5613424,0,0.0019933054393305,0
0.0021261924686192,200721.30061091,0,0.0021261924686192,0
0.0022590794979079,200708.27719804,0,0.0022590794979079,0
0.0023919665271967,200694.49009943,0,0.0023919665271967,0
0.0025248535564854,200679.93857867,0,0.0025248535564854,0
0.0026577405857741,200664.62208864,0,0.0026577405857741,0
0.0027906276150628,200648.54021568,0,0.0027906276150628,0
0.0029235146443515,200631.69263988,0,0.0029235146443515,0
0.0030564016736402,200614.07910695,0,0.0030564016736402,0
0.0031892887029289,200595.69940818,0,0.0031892887029289,0
0.0033221757322176,200576.55336628,0,0.0033221757322176,0
0.0034550627615063,200556.64082542,0,0.0034550627615063,0
0.003587949790795,200535.96164425,0,0.003587949790795,0
0.0037208368200837,200514.515691,0,0.0037208368200837,0
0.0038537238493724,200492.30284036,0,0.0038537238493724,0
0.0039866108786611,200469.32297144,0,0.0039866108786611,0
0.0041194979079498,200445.5759668,0,0.0041194979079498,0
0.0042523849372385,200421.06171231,0,0.0042523849372385,0
0.0043852719665272,200395.78009795,0,0.0043852719665272,0
0.0045181589958159,200369.73101946,0,0.0045181589958159,0
0.0046510460251046,200342.91438125,0,0.0046510460251046,0
0.0047839330543933,200315.33010077,0,0.0047839330543933,0
0.004916820083682,200286.9781148,0,0.004916820083682,0
0.0050497071129707,200257.85838868,0,0.0050497071129707,0
0.0051825941422594,200227.97092919,0,0.0051825941422594,0
0.0053154811715481,200197.31580287,0,0.0053154811715481,0
0.0054483682008368,200165.89316187,0,0.0054483682008368,0
0.0055812552301255,200133.70328031,0,0.0055812552301255,0
0.0057141422594142,200100.74660543,0,0.0057141422594142,0
0.0058470292887029,200067.02382965,0,0.0058470292887029,0
0.0059799163179916,200032.53599194,0,0.0059799163179916,0
0.0061128033472803,199997.28462036,0,0.0061128033472803,0
0.006245690376569,199961.27193265,0,0.006245690376569,0
0.0063785774058577,199924.50111842,0,0.0063785774058577,0
0.0065114644351464,199886.97673604,0,0.0065114644351464,0
0.0066443514644351,199848.70527108,0,0.0066443514644351,0
0.0067772384937238,199809.69592172,0,0.0067772384937238,0
0.0069101255230126,199769.96170372,0,0.0069101255230126,0
0.0070430125523013,199729.52100475,0,0.0070430125523013,0
0.00717589958159,199688.39977082,0,0.00717589958159,0
0.0073087866108787,199646.634582,0,0.0073087866108787,0
0.0074416736401674,199604.27697896,0,0.0074416736401674,0
0.0075745606694561,199561.39954915,0,0.0075745606694561,0
0.0077074476987448,199518.10448807,0,0.0077074476987448,0
0.0078403347280335,199474.53564244,0,0.0078403347280335,0
0.0079732217573222,199430.89545079,0,0.0079732217573222,0
0.0081061087866109,199387.18608302,0,0.0081061087866109,0
0.0082389958158996,199343.22428371,0,0.0082389958158996,0
0.0083718828451883,199298.88033108,0,0.0083718828451883,0
0.008504769874477,199254.06237974,0,0.008504769874477,0
0.0086376569037657,199208.70538237,0,0.0086376569037657,0
0.0087705439330544,199162.7632513,0,0.0087705439330544,0
0.0089034309623431,199116.20331252,0,0.0089034309623431,0
0.0090363179916318,199069.00238165,0,0.0090363179916318,0
0.0091692050209205,199021.14398753,0,0.0091692050209205,0
0.0093020920502092,198972.61640775,0,0.0093020920502092,0
0.0094349790794979,198923.41127883,0,0.0094349790794979,0
0.0095678661087866,198873.52261273,0,0.0095678661087866,0
0.0097007531380753,198822.94610109,0,0.0097007531380753,0
0.009833640167364,198771.67862293,0,0.009833640167364,0
0.0099665271966527,198719.71789629,0,0.0099665271966527,0
0.010099414225941,198667.06223181,0,0.010099414225941,0
0.01023230125523,198613.71035834,0,0.01023230125523,0
0.010365188284519,198559.66129953,0,0.010365188284519,0
0.010498075313808,198504.91428654,0,0.010498075313808,0
0.010630962343096,198449.46869625,0,0.010630962343096,0
0.010763849372385,198393.32400754,0,0.010763849372385,0
0.010896736401674,198336.4797703,0,0.010896736401674,0
0.011029623430962,198278.93558348,0,0.011029623430962,0
0.011162510460251,198220.69107959,0,0.011162510460251,0
0.01129539748954,198161.74591355,0,0.01129539748954,0
0.011428284518828,198102.09975483,0,0.011428284518828,0
0.011561171548117,198041.7522817,0,0.011561171548117,0
0.011694058577406,197980.70317705,0,0.011694058577406,0
0.011826945606695,197918.95212518,0,0.011826945606695,0
0.011959832635983,197856.49880923,0,0.011959832635983,0
0.012092719665272,197793.34290889,0,0.012092719665272,0
0.012225606694561,197729.48409818,0,0.012225606694561,0
0.012358493723849,197664.92204299,0,0.012358493723849,0
0.012491380753138,197599.65639806,0,0.012491380753138,0
0.012624267782427,197533.68680312,0,0.012624267782427,0
0.012757154811715,197467.01287762,0,0.012757154811715,0
0.012890041841004,197399.63421353,0,0.012890041841004,0
0.013022928870293,197331.55036523,0,0.013022928870293,0
0.013155815899582,197262.76083536,0,0.013155815899582,0
0.01328870292887,197193.26505488,0,0.01328870292887,0
0.013421589958159,197123.06235491,0,0.013421589958159,0
0.013554476987448,197052.15192705,0,0.013554476987448,0
0.013687364016736,196980.53276725,0,0.013687364016736,0
0.013820251046025,196908.20359664,0,0.013820251046025,0
0.013953138075314,196835.16274954,0,0.013953138075314,0
0.014086025104603,196761.40801536,0,0.014086025104603,0
0.014218912133891,196686.93641518,0,0.014218912133891,0
0.01435179916318,196611.74388603,0,0.01435179916318,0
0.014484686192469,196535.82483489,0,0.014484686192469,0
0.014617573221757,196459.17150849,0,0.014617573221757,0
0.014750460251046,196381.77310282,0,0.014750460251046,0
0.014883347280335,196303.61450509,0,0.014883347280335,0
0.015016234309623,196224.67451602,0,0.015016234309623,0
0.015149121338912,196144.92333821,0,0.015149121338912,0
0.015282008368201,196064.31902728,0,0.015282008368201,0
0.01541489539749,195982.80247768,0,0.01541489539749,0
0.015547782426778,195900.29033798,0,0.015547782426778,0
0.015680669456067,195816.66500071,0,0.015680669456067,0
0.015813556485356,195731.7604588,0,0.015813556485356,0
0.015946443514644,195645.34232215,0,0.015946443514644,0
0.016079330543933,195557.39702968,0,0.016079330543933,0
0.016212217573222,195468.14658693,0,0.016212217573222,0
0.01634510460251,195377.74832673,0,0.01634510460251,0
0.016477991631799,195286.3137048,0,0.016477991631799,0
0.016610878661088,195193.9216326,0,0.016610878661088,0
0.016743765690377,195100.62793495,0,0.016743765690377,0
0.016876652719665,195006.47205878,0,0.016876652719665,0
0.017009539748954,194911.48183196,0,0.017009539748954,0
0.017142426778243,194815.67683889,0,0.017142426778243,0
0.017275313807531,194719.07081488,0,0.017275313807531,0
0.01740820083682,194621.67334461,0,0.01740820083682,0
0.017541087866109,194523.49106668,0,0.017541087866109,0
0.017673974895397,194424.52852803,0,0.017673974895397,0
0.017806861924686,194324.78878975,0,0.017806861924686,0
0.017939748953975,194224.27385658,0,0.017939748953975,0
0.018072635983264,194122.98498115,0,0.018072635983264,0
0.018205523012552,194020.92287934,0,0.018205523012552,0
0.018338410041841,193918.08788224,0,0.018338410041841,0
0.01847129707113,193814.48004298,0,0.01847129707113,0
0.018604184100418,193710.09921106,0,0.018604184100418,0
0.018737071129707,193604.94508303,0,0.018737071129707,0
0.018869958158996,193499.01723562,0,0.018869958158996,0
0.019002845188285,193392.31514529,0,0.019002845188285,0
0.019135732217573,193284.83819639,0,0.019135732217573,0
0.019268619246862,193176.5856791,0,0.019268619246862,0
0.019401506276151,193067.55677677,0,0.019401506276151,0
0.019534393305439,192957.75054125,0,0.019534393305439,0
0.019667280334728,192847.16585327,0,0.019667280334728,0
0.019800167364017,192735.80136309,0,0.019800167364017,0
0.019933054393305,192623.65540451,0,0.019933054393305,0
0.020065941422594,192510.72587195,0,0.020065941422594,0
0.020198828451883,192397.01004602,0,0.020198828451883,0
0.020331715481172,192282.50434691,0,0.020331715481172,0
0.02046460251046,192167.20398624,0,0.02046460251046,0
0.020597489539749,192051.1024762,0,0.020597489539749,0
0.020730376569038,191934.1909375,0,0.020730376569038,0
0.020863263598326,191816.45712411,0,0.020863263598326,0
0.020996150627615,191697.884049,0,0.020996150627615,0
0.021129037656904,191578.44804767,0,0.021129037656904,0
0.021261924686192,191458.11604955,0,0.021261924686192,0
0.021394811715481,191336.8417335,0,0.021394811715481,0
0.02152769874477,191214.56011076,0,0.02152769874477,0
0.021660585774059,191091.17989247,0,0.021660585774059,0
0.021793472803347,190966.57273545,0,0.021793472803347,0
0.021926359832636,190840.55808981,0,0.021926359832636,0
0.022059246861925,190712.8818493,0,0.022059246861925,0
0.022192133891213,190583.1862702,0,0.022192133891213,0
0.022325020920502,190450.96758762,0,0.022325020920502,0
0.022457907949791,190315.51629792,0,0.022457907949791,0
0.022590794979079,190175.83301819,0,0.022590794979079,0
0.022723682008368,190030.50993495,0,0.022723682008368,0
0.022856569037657,189877.56376907,0,0.022856569037657,0
0.022989456066946,189714.20042944,0,0.022989456066946,0
0.023122343096234,189536.48341916,0,0.023122343096234,0
0.023255230125523,189338.86663377,0,0.023255230125523,0
0.023388117154812,189113.53609537,0,0.023388117154812,0
0.0235210041841,188849.48248841,0,0.0235210041841,0
0.023653891213389,188531.19441236,0,0.023653891213389,0
0.023786778242678,188136.81725089,0,0.023786778242678,0
0.023919665271967,187635.55915393,0,0.023919665271967,0
0.024052552301255,187003.67630029,0,0.024052552301255,0
0.024185439330544,186269.39701996,0,0.024185439330544,0
0.024318326359833,185454.24698874,0,0.024318326359833,0
0.024451213389121,184574.63124307,0,0.024451213389121,0
0.02458410041841,183643.04255196,0,0.02458410041841,0
0.024716987447699,182668.98437353,0,0.024716987447699,0
0.024849874476987,181659.67578927,0,0.024849874476987,0
0.024982761506276,180620.58989243,0,0.024982761506276,0
0.025115648535565,179555.86495065,0,0.025115648535565,0
0.025248535564854,178468.6183795,0,0.025248535564854,0
0.025381422594142,177361.18647145,0,0.025381422594142,0
0.025514309623431,176235.30740782,0,0.025514309623431,0
0.02564719665272,175092.2609427,0,0.02564719665272,0
0.025780083682008,173932.9749863,0,0.025780083682008,0
0.025912970711297,172758.10689983,0,0.025912970711297,0
0.026045857740586,171568.10546886,0,0.026045857740586,0
0.026178744769874,170363.25811235,0,0.026178744769874,0
0.026311631799163,169143.72680754,0,0.026311631799163,0
0.026444518828452,167909.57538805,0,0.026444518828452,0
0.026577405857741,166660.79024394,0,0.026577405857741,0
0.026710292887029,165397.2959723,0,0.026710292887029,0
0.026843179916318,164118.96715955,0,0.026843179916318,0
0.026976066945607,162825.63719671,0,0.026976066945607,0
0.027108953974895,161517.10481401,0,0.027108953974895,0
0.027241841004184,160193.13885755,0,0.027241841004184,0
0.027374728033473,158853.48170543,0,0.027374728033473,0
0.027507615062762,157497.85162432,0,0.027507615062762,0
0.02764050209205,156125.94429426,0,0.02764050209205,0
0.027773389121339,154737.43367273,0,0.027773389121339,0
0.027906276150628,153331.97232539,0,0.027906276150628,0
0.028039163179916,151909.1913174,0,0.028039163179916,0
0.028172050209205,150468.69973264,0,0.028172050209205,0
0.028304937238494,149010.08386777,0,0.028304937238494,0
0.028437824267782,147532.90613144,0,0.028437824267782,0
0.028570711297071,146036.70366539,0,0.028570711297071,0
0.02870359832636,144520.98669316,0,0.02870359832636,0
0.028836485355649,142985.23659214,0,0.028836485355649,0
0.028969372384937,141428.90367607,0,0.028969372384937,0
0.029102259414226,139851.40466656,0,0.029102259414226,0
0.029235146443515,138252.11982408,0,0.029235146443515,0
0.029368033472803,136630.38970022,0,0.029368033472803,0
0.029500920502092,134985.51146404,0,0.029500920502092,0
0.029633807531381,133316.73474501,0,0.029633807531381,0
0.029766694560669,131623.25692413,0,0.029766694560669,0
0.029899581589958,129904.21779169,0,0.029899581589958,0
0.030032468619247,128158.69347582,0,0.030032468619247,0
0.030165355648536,126385.6895288,0,0.030165355648536,0
0.030298242677824,124584.13303911,0,0.030298242677824,0
0.030431129707113,122752.86361479,0,0.030431129707113,0
0.030564016736402,120890.62305868,0,0.030564016736402,0
0.03069690376569,118996.04352714,0,0.03069690376569,0
0.030829790794979,117067.6339325,0,0.030829790794979,0
0.030962677824268,115103.76431388,0,0.030962677824268,0
0.031095564853556,113102.6478638,0,0.031095564853556,0
0.031228451882845,111062.32025874,0,0.031228451882845,0
0.031361338912134,108980.61590397,0,0.031361338912134,0
0.031494225941423,106855.14066878,0,0.031494225941423,0
0.031627112970711,104683.24066478,0,0.031627112970711,0
0.03176,102461.9666146,0,0.03176,0
