id,pressure,x,y,z
0,126035.09314116,0,0,0
0.0001328870292887,126034.28808121,0,0.0001328870292887,0
0.00026577405857741,126033.41569966,0,0.00026577405857741,0
0.00039866108786611,126032.42814436,0,0.00039866108786611,0
0.00053154811715481,126031.29140259,0,0.00053154811715481,0
0.00066443514644351,126029.98129908,0,0.00066443514644351,0
0.00079732217573222,126028.48065137,0,0.00079732217573222,0
0.00093020920502092,126026.77724779,0,0.00093020920502092,0
0.0010630962343096,126024.86241017,0,0.0010630962343096,0
0.0011959832635983,126022.72997218,0,0.0011959832635983,0
0.001328870292887,126020.37555315,0,0.001328870292887,0
0.0014617573221757,126017.79604187,0,0.0014617573221757,0
0.0015946443514644,126014.98922965,0,0.0015946443514644,0
0.0017275313807531,126011.95354959,0,0.0017275313807531,0
0.0018604184100418,126008.68789108,0,0.0018604184100418,0
0.0019933054393305,126005.19146814,0,0.0019933054393305,0
0.0021261924686192,126001.46372569,0,0.0021261924686192,0
0.0022590794979079,125997.50427297,0,0.0022590794979079,0
0.0023919665271967,125993.31283627,0,0.0023919665271967,0
0.0025248535564854,125988.88922524,0,0.0025248535564854,0
0.0026577405857741,125984.23330903,0,0.0026577405857741,0
0.0027906276150628,125979.34499928,0,0.0027906276150628,0
0.0029235146443515,125974.22423805,0,0.0029235146443515,0
0.0030564016736402,125968.87098925,0,0.0030564016736402,0
0.0031892887029289,125963.28523259,0,0.0031892887029289,0
0.0033221757322176,125957.46695923,0,0.0033221757322176,0
0.0034550627615063,125951.41616877,0,0.0034550627615063,0
0.003587949790795,125945.13286713,0,0.003587949790795,0
0.0037208368200837,125938.61706507,0,0.0037208368200837,0
0.0038537238493724,125931.86877721,0,0.0038537238493724,0
0.0039866108786611,125924.88802145,0,0.0039866108786611,0
0.0041194979079498,125917.67481865,0,0.0041194979079498,0
0.0042523849372385,125910.22919258,0,0.0042523849372385,0
0.0043852719665272,125902.55117021,0,0.0043852719665272,0
0.0045181589958159,125894.64078215,0,0.0045181589958159,0
0.0046510460251046,125886.49806356,0,0.0046510460251046,0
0.0047839330543933,125878.12305546,0,0.0047839330543933,0
0.004916820083682,125869.51580668,0,0.004916820083682,0
0.0050497071129707,125860.67637657,0,0.0050497071129707,0
0.0051825941422594,125851.60483897,0,0.0051825941422594,0
0.0053154811715481,125842.30128769,0,0.0053154811715481,0
0.0054483682008368,125832.76584439,0,0.0054483682008368,0
0.0055812552301255,125822.99866951,0,0.0055812552301255,0
0.0057141422594142,125812.99997776,0,0.0057141422594142,0
0.0058470292887029,125802.77005993,0,0.0058470292887029,0
0.0059799163179916,125792.30931349,0,0.0059799163179916,0
0.0061128033472803,125781.61828573,0,0.0061128033472803,0
0.006245690376569,125770.69773436,0,0.006245690376569,0
0.0063785774058577,125759.54871288,0,0.0063785774058577,0
0.0065114644351464,125748.17269054,0,0.0065114644351464,0
0.0066443514644351,125736.57172124,0,0.0066443514644351,0
0.0067772384937238,125724.74868098,0,0.0067772384937238,0
0.0069101255230126,125712.70760207,0,0.0069101255230126,0
0.0070430125523013,125700.45414313,0,0.0070430125523013,0
0.00717589958159,125687.99625038,0,0.00717589958159,0
0.0073087866108787,125675.3450879,0,0.0073087866108787,0
0.0074416736401674,125662.51634625,0,0.0074416736401674,0
0.0075745606694561,125649.53208345,0,0.0075745606694561,0
0.0077074476987448,125636.42331482,0,0.0077074476987448,0
0.0078403347280335,125623.23365625,0,0.0078403347280335,0
0.0079732217573222,125610.02444941,0,0.0079732217573222,0
0.0081061087866109,125596.79640998,0,0.0081061087866109,0
0.0082389958158996,125583.49413099,0,0.0082389958158996,0
0.0083718828451883,125570.07841846,0,0.0083718828451883,0
0.008504769874477,125556.52155062,0,0.008504769874477,0
0.0086376569037657,125542.8039234,0,0.0086376569037657,0
0.0087705439330544,125528.91167682,0,0.0087705439330544,0
0.0089034309623431,125514.83501545,0,0.0089034309623431,0
0.0090363179916318,125500.56702004,0,0.0090363179916318,0
0.0091692050209205,125486.10280665,0,0.0091692050209205,0
0.0093020920502092,125471.43893163,0,0.0093020920502092,0
0.0094349790794979,125456.57297063,0,0.0094349790794979,0
0.0095678661087866,125441.50322071,0,0.0095678661087866,0
0.0097007531380753,125426.22848957,0,0.0097007531380753,0
0.009833640167364,125410.74794638,0,0.009833640167364,0
0.0099665271966527,125395.06101628,0,0.0099665271966527,0
0.010099414225941,125379.16730568,0,0.010099414225941,0
0.01023230125523,125363.06654944,0,0.01023230125523,0
0.010365188284519,125346.75857348,0,0.010365188284519,0
0.010498075313808,125330.24326834,0,0.010498075313808,0
0.010630962343096,125313.52057043,0,0.010630962343096,0
0.010763849372385,125296.5904488,0,0.010763849372385,0
0.010896736401674,125279.45289575,0,0.010896736401674,0
0.011029623430962,125262.10792018,0,0.011029623430962,0
0.011162510460251,125244.55554291,0,0.011162510460251,0
0.01129539748954,125226.79579327,0,0.01129539748954,0
0.011428284518828,125208.82870677,0,0.011428284518828,0
0.011561171548117,125190.65432332,0,0.011561171548117,0
0.011694058577406,125172.272686,0,0.011694058577406,0
0.011826945606695,125153.68384006,0,0.011826945606695,0
0.011959832635983,125134.88783221,0,0.011959832635983,0
0.012092719665272,125115.88470986,0,0.012092719665272,0
0.012225606694561,125096.67452052,0,0.012225606694561,0
0.012358493723849,125077.25731103,0,0.012358493723849,0
0.012491380753138,125057.63312671,0,0.012491380753138,0
0.012624267782427,125037.80201014,0,0.012624267782427,0
0.012757154811715,125017.76399969,0,0.012757154811715,0
0.012890041841004,124997.5191273,0,0.012890041841004,0
0.013022928870293,124977.06741553,0,0.013022928870293,0
0.013155815899582,124956.40887332,0,0.013155815899582,0
0.01328870292887,124935.54349008,0,0.01328870292887,0
0.013421589958159,124914.47122729,0,0.013421589958159,0
0.013554476987448,124893.19200673,0,0.013554476987448,0
0.013687364016736,124871.70569374,0,0.013687364016736,0
0.013820251046025,124850.01207362,0,0.013820251046025,0
0.013953138075314,124828.11081837,0,0.013953138075314,0
0.014086025104603,124806.00143952,0,0.014086025104603,0
0.014218912133891,124783.68322159,0,0.014218912133891,0
0.01435179916318,124761.15512811,0,0.01435179916318,0
0.014484686192469,124738.41566864,0,0.014484686192469,0
0.014617573221757,124715.46271105,0,0.014617573221757,0
0.014750460251046,124692.29321616,0,0.014750460251046,0
0.014883347280335,124668.90286275,0,0.014883347280335,0
0.015016234309623,124645.28551777,0,0.015016234309623,0
0.015149121338912,124621.43248755,0,0.015149121338912,0
0.015282008368201,124597.3314599,0,0.015282008368201,0
0.01541489539749,124572.96500903,0,0.01541489539749,0
0.015547782426778,124548.30848305,0,0.015547782426778,0
0.015680669456067,124523.32701879,0,0.015680669456067,0
0.015813556485356,124497.97132352,0,0.015813556485356,0
0.015946443514644,124472.17171438,0,0.015946443514644,0
0.016079330543933,124445.92445995,0,0.016079330543933,0
0.016212217573222,124419.29615657,0,0.016212217573222,0
0.01634510460251,124392.33407531,0,0.01634510460251,0
0.016477991631799,124365.07177728,0,0.016477991631799,0
0.016610878661088,124337.5330974,0,0.016610878661088,0
0.016743765690377,124309.73497069,0,0.016743765690377,0
0.016876652719665,124281.6894373,0,0.016876652719665,0
0.017009539748954,124253.40506501,0,0.017009539748954,0
0.017142426778243,124224.88795837,0,0.017142426778243,0
0.017275313807531,124196.14247459,0,0.017275313807531,0
0.01740820083682,124167.1717315,0,0.01740820083682,0
0.017541087866109,124137.97796773,0,0.017541087866109,0
0.017673974895397,124108.56279837,0,0.017673974895397,0
0.017806861924686,124078.92739616,0,0.017806861924686,0
0.017939748953975,124049.07262007,0,0.017939748953975,0
0.018072635983264,124018.99910631,0,0.018072635983264,0
0.018205523012552,123988.70733282,0,0.018205523012552,0
0.018338410041841,123958.19766482,0,0.018338410041841,0
0.01847129707113,123927.4703868,0,0.01847129707113,0
0.018604184100418,123896.52572484,0,0.018604184100418,0
0.018737071129707,123865.36386184,0,0.018737071129707,0
0.018869958158996,123833.98494757,0,0.018869958158996,0
0.019002845188285,123802.3891046,0,0.019002845188285,0
0.019135732217573,123770.57643097,0,0.019135732217573,0
0.019268619246862,123738.54699974,0,0.019268619246862,0
0.019401506276151,123706.30085562,0,0.019401506276151,0
0.019534393305439,123673.83800791,0,0.019534393305439,0
0.019667280334728,123641.15841938,0,0.019667280334728,0
0.019800167364017,123608.26198927,0,0.019800167364017,0
0.019933054393305,123575.14852881,0,0.019933054393305,0
0.020065941422594,123541.81772612,0,0.020065941422594,0
0.020198828451883,123508.26909633,0,0.020198828451883,0
0.020331715481172,123474.50191108,0,0.020331715481172,0
0.02046460251046,123440.51509902,0,0.02046460251046,0
0.020597489539749,123406.30710533,0,0.020597489539749,0
0.020730376569038,123371.87569379,0,0.020730376569038,0
0.020863263598326,123337.2176677,0,0.020863263598326,0
0.020996150627615,123302.32847661,0,0.020996150627615,0
0.021129037656904,123267.20166199,0,0.021129037656904,0
0.021261924686192,123231.82807615,0,0.021261924686192,0
0.021394811715481,123196.19478144,0,0.021394811715481,0
0.02152769874477,123160.28349898,0,0.02152769874477,0
0.021660585774059,123124.06842255,0,0.021660585774059,0
0.021793472803347,123087.51313801,0,0.021793472803347,0
0.021926359832636,123050.56628196,0,0.021926359832636,0
0.022059246861925,123013.15542397,0,0.022059246861925,0
0.022192133891213,122975.17844533,0,0.022192133891213,0
0.022325020920502,122936.49138992,0,0.022325020920502,0
0.022457907949791,122896.89134358,0,0.022457907949791,0
0.022590794979079,122856.09230762,0,0.022590794979079,0
0.022723682008368,122813.69119968,0,0.022723682008368,0
0.022856569037657,122769.11994199,0,0.022856569037657,0
0.022989456066946,122721.57794413,0,0.022989456066946,0
0.023122343096234,122669.93695757,0,0.023122343096234,0
0.023255230125523,122612.6069968,0,0.023255230125523,0
0.023388117154812,122547.34739552,0,0.023388117154812,0
0.0235210041841,122471.00054761,0,0.0235210041841,0
0.023653891213389,122379.11669588,0,0.023653891213389,0
0.023786778242678,122265.4251865,0,0.023786778242678,0
0.023919665271967,122121.08936957,0,0.023919665271967,0
0.024052552301255,121939.33033004,0,0.024052552301255,0
0.024185439330544,121728.43451916,0,0.024185439330544,0
0.024318326359833,121494.74082973,0,0.024318326359833,0
0.024451213389121,121243.09850544,0,0.024451213389121,0
0.02458410041841,120977.21740403,0,0.02458410041841,0
0.024716987447699,120699.9359173,0,0.024716987447699,0
0.024849874476987,120413.42590486,0,0.024849874476987,0
0.024982761506276,120119.34944846,0,0.024982761506276,0
0.025115648535565,119818.97875295,0,0.025115648535565,0
0.025248535564854,119513.28785753,0,0.025248535564854,0
0.025381422594142,119203.02278442,0,0.025381422594142,0
0.025514309623431,118888.75519422,0,0.025514309623431,0
0.02564719665272,118570.9234257,0,0.02564719665272,0
0.025780083682008,118249.86388604,0,0.025780083682008,0
0.025912970711297,117925.83506033,0,0.025912970711297,0
0.026045857740586,117599.03587584,0,0.026045857740586,0
0.026178744769874,117269.61974839,0,0.026178744769874,0
0.026311631799163,116937.70532627,0,0.026311631799163,0
0.026444518828452,116603.38470828,0,0.026444518828452,0
0.026577405857741,116266.72972993,0,0.026577405857741,0
0.026710292887029,115927.79677205,0,0.026710292887029,0
0.026843179916318,115586.63043949,0,0.026843179916318,0
0.026976066945607,115243.26637549,0,0.026976066945607,0
0.027108953974895,114897.73341511,0,0.027108953974895,0
0.027241841004184,114550.05523313,0,0.027241841004184,0
0.027374728033473,114200.25160535,0,0.027374728033473,0
0.027507615062762,113848.339374,0,0.027507615062762,0
0.02764050209205,113494.33318705,0,0.02764050209205,0
0.027773389121339,113138.24606425,0,0.027773389121339,0
0.027906276150628,112780.08983058,0,0.027906276150628,0
0.028039163179916,112419.87544809,0,0.028039163179916,0
0.028172050209205,112057.61326963,0,0.028172050209205,0
0.028304937238494,111693.31323246,0,0.028304937238494,0
0.028437824267782,111326.98500529,0,0.028437824267782,0
0.028570711297071,110958.63809889,0,0.028570711297071,0
0.02870359832636,110588.28194782,0,0.02870359832636,0
0.028836485355649,110215.9259687,0,0.028836485355649,0
0.028969372384937,109841.57959872,0,0.028969372384937,0
0.029102259414226,109465.25231675,0,0.029102259414226,0
0.029235146443515,109086.95364787,0,0.029235146443515,0
0.029368033472803,108706.69315137,0,0.029368033472803,0
0.029500920502092,108324.48039059,0,0.029500920502092,0
0.029633807531381,107940.3248821,0,0.029633807531381,0
0.029766694560669,107554.2360199,0,0.029766694560669,0
0.029899581589958,107166.22296866,0,0.029899581589958,0
0.030032468619247,106776.29451791,0,0.030032468619247,0
0.030165355648536,106384.4588861,0,0.030165355648536,0
0.030298242677824,105990.72346005,0,0.030298242677824,0
0.030431129707113,105595.09445062,0,0.030431129707113,0
0.030564016736402,105197.57643957,0,0.030564016736402,0
0.03069690376569,104798.17178479,0,0.03069690376569,0
0.030829790794979,104396.87984108,0,0.030829790794979,0
0.030962677824268,103993.69594069,0,0.030962677824268,0
0.031095564853556,103588.61006063,0,0.031095564853556,0
0.031228451882845,103181.60508182,0,0.031228451882845,0
0.031361338912134,102772.65451628,0,0.031361338912134,0
0.031494225941423,102361.71954069,0,0.031494225941423,0
0.031627112970711,101948.74512619,0,0.031627112970711,0
0.03176,101533.65498978,0,0.03176,0
