id,pressure,x,y,z
0,121938.561697,0,0,0
0.0001328870292887,121937.87873048,0,0.0001328870292887,0
0.00026577405857741,121937.13865242,0,0.00026577405857741,0
0.00039866108786611,121936.30086823,0,0.00039866108786611,0
0.00053154811715481,121935.33652405,0,0.00053154811715481,0
0.00066443514644351,121934.22511175,0,0.00066443514644351,0
0.00079732217573222,121932.95205565,0,0.00079732217573222,0
0.00093020920502092,121931.50699719,0,0.00093020920502092,0
0.0010630962343096,121929.88257558,0,0.0010630962343096,0
0.0011959832635983,121928.07356114,0,0.0011959832635983,0
0.001328870292887,121926.07623917,0,0.001328870292887,0
0.0014617573221757,121923.88797214,0,0.0014617573221757,0
0.0015946443514644,121921.50688834,0,0.0015946443514644,0
0.0017275313807531,121918.93166065,0,0.0017275313807531,0
0.0018604184100418,121916.16134928,0,0.0018604184100418,0
0.0019933054393305,121913.19529001,0,0.0019933054393305,0
0.0021261924686192,121910.03301465,0,0.0021261924686192,0
0.0022590794979079,121906.67419466,0,0.0022590794979079,0
0.0023919665271967,121903.11860093,0,0.0023919665271967,0
0.0025248535564854,121899.36607528,0,0.0025248535564854,0
0.0026577405857741,121895.41651017,0,0.0026577405857741,0
0.0027906276150628,121891.26983432,0,0.0027906276150628,0
0.0029235146443515,121886.92600241,0,0.0029235146443515,0
0.0030564016736402,121882.38498787,0,0.0030564016736402,0
0.0031892887029289,121877.6467777,0,0.0031892887029289,0
0.0033221757322176,121872.71136882,0,0.0033221757322176,0
0.0034550627615063,121867.57876547,0,0.0034550627615063,0
0.003587949790795,121862.24897745,0,0.003587949790795,0
0.0037208368200837,121856.72201886,0,0.0037208368200837,0
0.0038537238493724,121850.99790725,0,0.0038537238493724,0
0.0039866108786611,121845.07666313,0,0.0039866108786611,0
0.0041194979079498,121838.95830971,0,0.0041194979079498,0
0.0042523849372385,121832.64287288,0,0.0042523849372385,0
0.0043852719665272,121826.13038138,0,0.0043852719665272,0
0.0045181589958159,121819.42086727,0,0.0045181589958159,0
0.0046510460251046,121812.51436661,0,0.0046510460251046,0
0.0047839330543933,121805.41092066,0,0.0047839330543933,0
0.004916820083682,121798.11057744,0,0.004916820083682,0
0.0050497071129707,121790.61339412,0,0.0050497071129707,0
0.0051825941422594,121782.91944028,0,0.0051825941422594,0
0.0053154811715481,121775.02880269,0,0.0053154811715481,0
0.0054483682008368,121766.94159185,0,0.0054483682008368,0
0.0055812552301255,121758.65795135,0,0.0055812552301255,0
0.0057141422594142,121750.17807098,0,0.0057141422594142,0
0.0058470292887029,121741.50220518,0,0.0058470292887029,0
0.0059799163179916,121732.63069905,0,0.0059799163179916,0
0.0061128033472803,121723.56402486,0,0.0061128033472803,0
0.006245690376569,121714.30283345,0,0.006245690376569,0
0.0063785774058577,121704.84802661,0,0.0063785774058577,0
0.0065114644351464,121695.20085878,0,0.0065114644351464,0
0.0066443514644351,121685.36308019,0,0.0066443514644351,0
0.0067772384937238,121675.33713825,0,0.0067772384937238,0
0.0069101255230126,121665.12646081,0,0.0069101255230126,0
0.0070430125523013,121654.73585467,0,0.0070430125523013,0
0.00717589958159,121644.17206618,0,0.00717589958159,0
0.0073087866108787,121633.44456992,0,0.0073087866108787,0
0.0074416736401674,121622.56667819,0,0.0074416736401674,0
0.0075745606694561,121611.55710176,0,0.0075745606694561,0
0.0077074476987448,121600.44214559,0,0.0077074476987448,0
0.0078403347280335,121589.25879768,0,0.0078403347280335,0
0.0079732217573222,121578.05907434,0,0.0079732217573222,0
0.0081061087866109,121566.843588,0,0.0081061087866109,0
0.0082389958158996,121555.5653665,0,0.0082389958158996,0
0.0083718828451883,121544.19118512,0,0.0083718828451883,0
0.008504769874477,121532.69754685,0,0.008504769874477,0
0.0086376569037657,121521.06783804,0,0.0086376569037657,0
0.0087705439330544,121509.29031581,0,0.0087705439330544,0
0.0089034309623431,121497.35668394,0,0.0089034309623431,0
0.0090363179916318,121485.2610852,0,0.0090363179916318,0
0.0091692050209205,121472.99938833,0,0.0091692050209205,0
0.0093020920502092,121460.56868356,0,0.0093020920502092,0
0.0094349790794979,121447.96692557,0,0.0094349790794979,0
0.0095678661087866,121435.19268095,0,0.0095678661087866,0
0.0097007531380753,121422.24494943,0,0.0097007531380753,0
0.009833640167364,121409.12303742,0,0.009833640167364,0
0.0099665271966527,121395.82646853,0,0.0099665271966527,0
0.010099414225941,121382.35492026,0,0.010099414225941,0
0.01023230125523,121368.70817916,0,0.01023230125523,0
0.010365188284519,121354.88610918,0,0.010365188284519,0
0.010498075313808,121340.88862918,0,0.010498075313808,0
0.010630962343096,121326.7156971,0,0.010630962343096,0
0.010763849372385,121312.3672987,0,0.010763849372385,0
0.010896736401674,121297.84343961,0,0.010896736401674,0
0.011029623430962,121283.14413968,0,0.011029623430962,0
0.011162510460251,121268.26942902,0,0.011162510460251,0
0.01129539748954,121253.21934513,0,0.01129539748954,0
0.011428284518828,121237.99393086,0,0.011428284518828,0
0.011561171548117,121222.59323299,0,0.011561171548117,0
0.011694058577406,121207.0173011,0,0.011694058577406,0
0.011826945606695,121191.26618679,0,0.011826945606695,0
0.011959832635983,121175.33994301,0,0.011959832635983,0
0.012092719665272,121159.23862351,0,0.012092719665272,0
0.012225606694561,121142.96228224,0,0.012225606694561,0
0.012358493723849,121126.51097274,0,0.012358493723849,0
0.012491380753138,121109.88474743,0,0.012491380753138,0
0.012624267782427,121093.08365654,0,0.012624267782427,0
0.012757154811715,121076.10774692,0,0.012757154811715,0
0.012890041841004,121058.9570601,0,0.012890041841004,0
0.013022928870293,121041.63162984,0,0.013022928870293,0
0.013155815899582,121024.13147852,0,0.013155815899582,0
0.01328870292887,121006.45661215,0,0.01328870292887,0
0.013421589958159,120988.60701326,0,0.013421589958159,0
0.013554476987448,120970.5826309,0,0.013554476987448,0
0.013687364016736,120952.38336654,0,0.013687364016736,0
0.013820251046025,120934.00905406,0,0.013820251046025,0
0.013953138075314,120915.4594316,0,0.013953138075314,0
0.014086025104603,120896.73410162,0,0.014086025104603,0
0.014218912133891,120877.83247466,0,0.014218912133891,0
0.01435179916318,120858.75368968,0,0.01435179916318,0
0.014484686192469,120839.49650164,0,0.014484686192469,0
0.014617573221757,120820.05912251,0,0.014617573221757,0
0.014750460251046,120800.43899673,0,0.014750460251046,0
0.014883347280335,120780.63248383,0,0.014883347280335,0
0.015016234309623,120760.63440997,0,0.015016234309623,0
0.015149121338912,120740.4374342,0,0.015149121338912,0
0.015282008368201,120720.03115301,0,0.015282008368201,0
0.01541489539749,120699.40083487,0,0.01541489539749,0
0.015547782426778,120678.52563209,0,0.015547782426778,0
0.015680669456067,120657.37605408,0,0.015680669456067,0
0.015813556485356,120635.9103967,0,0.015813556485356,0
0.015946443514644,120614.06969686,0,0.015946443514644,0
0.016079330543933,120591.85082502,0,0.016079330543933,0
0.016212217573222,120569.31018771,0,0.016212217573222,0
0.01634510460251,120546.48782989,0,0.01634510460251,0
0.016477991631799,120523.41218902,0,0.016477991631799,0
0.016610878661088,120500.10346782,0,0.016610878661088,0
0.016743765690377,120476.5760271,0,0.016743765690377,0
0.016876652719665,120452.84008337,0,0.016876652719665,0
0.017009539748954,120428.90291321,0,0.017009539748954,0
0.017142426778243,120404.76970769,0,0.017142426778243,0
0.017275313807531,120380.44417853,0,0.017275313807531,0
0.01740820083682,120355.92898812,0,0.01740820083682,0
0.017541087866109,120331.22605461,0,0.017541087866109,0
0.017673974895397,120306.33676828,0,0.017673974895397,0
0.017806861924686,120281.26214503,0,0.017806861924686,0
0.017939748953975,120256.00293518,0,0.017939748953975,0
0.018072635983264,120230.55970065,0,0.018072635983264,0
0.018205523012552,120204.93286946,0,0.018205523012552,0
0.018338410041841,120179.12277437,0,0.018338410041841,0
0.01847129707113,120153.12967996,0,0.01847129707113,0
0.018604184100418,120126.95380149,0,0.018604184100418,0
0.018737071129707,120100.59531788,0,0.018737071129707,0
0.018869958158996,120074.05438015,0,0.018869958158996,0
0.019002845188285,120047.33111652,0,0.019002845188285,0
0.019135732217573,120020.42563462,0,0.019135732217573,0
0.019268619246862,119993.3380212,0,0.019268619246862,0
0.019401506276151,119966.06833923,0,0.019401506276151,0
0.019534393305439,119938.61662202,0,0.019534393305439,0
0.019667280334728,119910.9828638,0,0.019667280334728,0
0.019800167364017,119883.16700547,0,0.019800167364017,0
0.019933054393305,119855.16891391,0,0.019933054393305,0
0.020065941422594,119826.98835243,0,0.020065941422594,0
0.020198828451883,119798.62493876,0,0.020198828451883,0
0.020331715481172,119770.07808561,0,0.020331715481172,0
0.02046460251046,119741.34691682,0,0.02046460251046,0
0.020597489539749,119712.43014902,0,0.020597489539749,0
0.020730376569038,119683.32592479,0,0.020730376569038,0
0.020863263598326,119654.03157746,0,0.020863263598326,0
0.020996150627615,119624.54329973,0,0.020996150627615,0
0.021129037656904,119594.85567647,0,0.021129037656904,0
0.021261924686192,119564.96102643,0,0.021261924686192,0
0.021394811715481,119534.84847452,0,0.021394811715481,0
0.02152769874477,119504.50264436,0,0.02152769874477,0
0.021660585774059,119473.90181585,0,0.021660585774059,0
0.021793472803347,119443.01532865,0,0.021793472803347,0
0.021926359832636,119411.79992317,0,0.021926359832636,0
0.022059246861925,119380.19458409,0,0.022059246861925,0
0.022192133891213,119348.1132737,0,0.022192133891213,0
0.022325020920502,119315.43469152,0,0.022325020920502,0
0.022457907949791,119281.98784316,0,0.022457907949791,0
0.022590794979079,119247.53170361,0,0.022590794979079,0
0.022723682008368,119211.7265581,0,0.022723682008368,0
0.022856569037657,119174.09361485,0,0.022856569037657,0
0.022989456066946,119133.95809025,0,0.022989456066946,0
0.023122343096234,119090.36900298,0,0.023122343096234,0
0.023255230125523,119041.98614592,0,0.023255230125523,0
0.023388117154812,118986.92080413,0,0.023388117154812,0
0.0235210041841,118922.51129102,0,0.0235210041841,0
0.023653891213389,118845.00662883,0,0.023653891213389,0
0.023786778242678,118749.1207847,0,0.023786778242678,0
0.023919665271967,118627.40449548,0,0.023919665271967,0
0.024052552301255,118474.14616765,0,0.024052552301255,0
0.024185439330544,118296.34708928,0,0.024185439330544,0
0.024318326359833,118099.36457045,0,0.024318326359833,0
0.024451213389121,117887.29828426,0,0.024451213389121,0
0.02458410041841,117663.28583187,0,0.02458410041841,0
0.024716987447699,117429.72885832,0,0.024716987447699,0
0.024849874476987,117188.46603697,0,0.024849874476987,0
0.024982761506276,116940.90540645,0,0.024982761506276,0
0.025115648535565,116688.12561067,0,0.025115648535565,0
0.025248535564854,116430.95334897,0,0.025248535564854,0
0.025381422594142,116170.02262607,0,0.025381422594142,0
0.025514309623431,115905.82007869,0,0.025514309623431,0
0.02564719665272,115638.71965057,0,0.02564719665272,0
0.025780083682008,115369.00911878,0,0.025780083682008,0
0.025912970711297,115096.91038657,0,0.025912970711297,0
0.026045857740586,114822.59500731,0,0.026045857740586,0
0.026178744769874,114546.19606056,0,0.026178744769874,0
0.026311631799163,114267.81723748,0,0.026311631799163,0
0.026444518828452,113987.53979147,0,0.026444518828452,0
0.026577405857741,113705.42785587,0,0.026577405857741,0
0.026710292887029,113421.53251248,0,0.026710292887029,0
0.026843179916318,113135.89490449,0,0.026843179916318,0
0.026976066945607,112848.54861859,0,0.026976066945607,0
0.027108953974895,112559.52150781,0,0.027108953974895,0
0.027241841004184,112268.83708681,0,0.027241841004184,0
0.027374728033473,111976.51559984,0,0.027374728033473,0
0.027507615062762,111682.57483848,0,0.027507615062762,0
0.02764050209205,111387.0307678,0,0.02764050209205,0
0.027773389121339,111089.89800594,0,0.027773389121339,0
0.027906276150628,110791.19019137,0,0.027906276150628,0
0.028039163179916,110490.92026418,0,0.028039163179916,0
0.028172050209205,110189.10068124,0,0.028172050209205,0
0.028304937238494,109885.74358053,0,0.028304937238494,0
0.028437824267782,109580.86090614,0,0.028437824267782,0
0.028570711297071,109274.46450256,0,0.028570711297071,0
0.02870359832636,108966.56618488,0,0.02870359832636,0
0.028836485355649,108657.17778932,0,0.028836485355649,0
0.028969372384937,108346.31120765,0,0.028969372384937,0
0.029102259414226,108033.97840739,0,0.029102259414226,0
0.029235146443515,107720.19143905,0,0.029235146443515,0
0.029368033472803,107404.96243031,0,0.029368033472803,0
0.029500920502092,107088.3035666,0,0.029500920502092,0
0.029633807531381,106770.22705604,0,0.029633807531381,0
0.029766694560669,106450.74507604,0,0.029766694560669,0
0.029899581589958,106129.86969718,0,0.029899581589958,0
0.030032468619247,105807.61277858,0,0.030032468619247,0
0.030165355648536,105483.98582695,0,0.030165355648536,0
0.030298242677824,105158.9998087,0,0.030298242677824,0
0.030431129707113,104832.66490145,0,0.030431129707113,0
0.030564016736402,104504.99016674,0,0.030564016736402,0
0.03069690376569,104175.98312033,0,0.03069690376569,0
0.030829790794979,103845.64916899,0,0.030829790794979,0
0.030962677824268,103513.9908735,0,0.030962677824268,0
0.031095564853556,103181.00698494,0,0.031095564853556,0
0.031228451882845,102846.69118563,0,0.031228451882845,0
0.031361338912134,102511.03044477,0,0.031361338912134,0
0.031494225941423,102174.00287185,0,0.031494225941423,0
0.031627112970711,101835.57491525,0,0.031627112970711,0
0.03176,101495.69770681,0,0.03176,0
