id,pressure,x,y,z
0,736542.57483016,0,0,0
0.0001328870292887,736530.8378136,0,0.0001328870292887,0
0.00026577405857741,736518.11925915,0,0.00026577405857741,0
0.00039866108786611,736503.72143032,0,0.00039866108786611,0
0.00053154811715481,736487.14831496,0,0.00053154811715481,0
0.00066443514644351,736468.04728206,0,0.00066443514644351,0
0.00079732217573222,736446.1676097,0,0.00079732217573222,0
0.00093020920502092,736421.33100555,0,0.00093020920502092,0
0.0010630962343096,736393.41065208,0,0.0010630962343096,0
0.0011959832635983,736362.31631147,0,0.0011959832635983,0
0.001328870292887,736327.98373776,0,0.001328870292887,0
0.0014617573221757,736290.36715086,0,0.0014617573221757,0
0.0015946443514644,736249.43388692,0,0.0015946443514644,0
0.0017275313807531,736205.1605957,0,0.0017275313807531,0
0.0018604184100418,736157.53053763,0,0.0018604184100418,0
0.0019933054393305,736106.53166253,0,0.0019933054393305,0
0.0021261924686192,736052.15524393,0,0.0021261924686192,0
0.0022590794979079,735994.39490837,0,0.0022590794979079,0
0.0023919665271967,735933.24594535,0,0.0023919665271967,0
0.0025248535564854,735868.70481697,0,0.0025248535564854,0
0.0026577405857741,735800.76880935,0,0.0026577405857741,0
0.0027906276150628,735729.4357849,0,0.0027906276150628,0
0.0029235146443515,735654.70400632,0,0.0029235146443515,0
0.0030564016736402,735576.57201166,0,0.0030564016736402,0
0.0031892887029289,735495.03852555,0,0.0031892887029289,0
0.0033221757322176,735410.10239646,0,0.0033221757322176,0
0.0034550627615063,735321.76255236,0,0.0034550627615063,0
0.003587949790795,735230.01796966,0,0.003587949790795,0
0.0037208368200837,735134.86765183,0,0.0037208368200837,0
0.0038537238493724,735036.3106151,0,0.0038537238493724,0
0.0039866108786611,734934.34587964,0,0.0039866108786611,0
0.0041194979079498,734828.97246512,0,0.0041194979079498,0
0.0042523849372385,734720.18939019,0,0.0042523849372385,0
0.0043852719665272,734607.99567581,0,0.0043852719665272,0
0.0045181589958159,734492.39035285,0,0.0045181589958159,0
0.0046510460251046,734373.37247472,0,0.0046510460251046,0
0.0047839330543933,734250.94113683,0,0.0047839330543933,0
0.004916820083682,734125.09550478,0,0.004916820083682,0
0.0050497071129707,733995.83485498,0,0.0050497071129707,0
0.0051825941422594,733863.15863222,0,0.0051825941422594,0
0.0053154811715481,733727.06653108,0,0.0053154811715481,0
0.0054483682008368,733587.55861075,0,0.0054483682008368,0
0.0055812552301255,733444.63545678,0,0.0055812552301255,0
0.0057141422594142,733298.29840879,0,0.0057141422594142,0
0.0058470292887029,733148.5498808,0,0.0058470292887029,0
0.0059799163179916,732995.39381214,0,0.0059799163179916,0
0.0061128033472803,732838.83630165,0,0.0061128033472803,0
0.006245690376569,732678.88649991,0,0.006245690376569,0
0.0063785774058577,732515.55786447,0,0.0063785774058577,0
0.0065114644351464,732348.8699255,0,0.0065114644351464,0
0.0066443514644351,732178.85076961,0,0.0066443514644351,0
0.0067772384937238,732005.54053376,0,0.0067772384937238,0
0.0069101255230126,731828.99632019,0,0.0069101255230126,0
0.0070430125523013,731649.29910999,0,0.0070430125523013,0
0.00717589958159,731466.5634884,0,0.00717589958159,0
0.0073087866108787,731280.95132486,0,0.0073087866108787,0
0.0074416736401674,731092.69101643,0,0.0074416736401674,0
0.0075745606694561,730902.10455655,0,0.0075745606694561,0
0.0077074476987448,730709.64561151,0,0.0077074476987448,0
0.0078403347280335,730515.95308081,0,0.0078403347280335,0
0.0079732217573222,730321.92643697,0,0.0079732217573222,0
0.0081061087866109,730127.57480917,0,0.0081061087866109,0
0.0082389958158996,729932.08289402,0,0.0082389958158996,0
0.0083718828451883,729734.87332677,0,0.0083718828451883,0
0.008504769874477,729535.53708259,0,0.008504769874477,0
0.0086376569037657,729333.78423261,0,0.0086376569037657,0
0.0087705439330544,729129.40910236,0,0.0087705439330544,0
0.0089034309623431,728922.26562037,0,0.0089034309623431,0
0.0090363179916318,728712.24987655,0,0.0090363179916318,0
0.0091692050209205,728499.28778184,0,0.0091692050209205,0
0.0093020920502092,728283.32633709,0,0.0093020920502092,0
0.0094349790794979,728064.32745554,0,0.0094349790794979,0
0.0095678661087866,727842.2635921,0,0.0095678661087866,0
0.0097007531380753,727617.1146509,0,0.0097007531380753,0
0.009833640167364,727388.86579737,0,0.009833640167364,0
0.0099665271966527,727157.50591012,0,0.0099665271966527,0
0.010099414225941,726923.02648565,0,0.010099414225941,0
0.01023230125523,726685.42086332,0,0.01023230125523,0
0.010365188284519,726444.68367695,0,0.010365188284519,0
0.010498075313808,726200.81046679,0,0.010498075313808,0
0.010630962343096,725953.79740483,0,0.010630962343096,0
0.010763849372385,725703.64110044,0,0.010763849372385,0
0.010896736401674,725450.33846265,0,0.010896736401674,0
0.011029623430962,725193.88660258,0,0.011029623430962,0
0.011162510460251,724934.28276421,0,0.011162510460251,0
0.01129539748954,724671.52427503,0,0.01129539748954,0
0.011428284518828,724405.60851083,0,0.011428284518828,0
0.011561171548117,724136.53287015,0,0.011561171548117,0
0.011694058577406,723864.29475553,0,0.011694058577406,0
0.011826945606695,723588.89155912,0,0.011826945606695,0
0.011959832635983,723310.32065113,0,0.011959832635983,0
0.012092719665272,723028.57936959,0,0.012092719665272,0
0.012225606694561,722743.66501023,0,0.012225606694561,0
0.012358493723849,722455.57481533,0,0.012358493723849,0
0.012491380753138,722164.3059602,0,0.012491380753138,0
0.012624267782427,721869.85553562,0,0.012624267782427,0
0.012757154811715,721572.22052423,0,0.012757154811715,0
0.012890041841004,721271.39776798,0,0.012890041841004,0
0.013022928870293,720967.3839227,0,0.013022928870293,0
0.013155815899582,720660.17539447,0,0.013155815899582,0
0.01328870292887,720349.76825,0,0.01328870292887,0
0.013421589958159,720036.15809024,0,0.013421589958159,0
0.013554476987448,719719.33987211,0,0.013554476987448,0
0.013687364016736,719399.30765665,0,0.013687364016736,0
0.013820251046025,719076.05425351,0,0.013820251046025,0
0.013953138075314,718749.57071861,0,0.013953138075314,0
0.014086025104603,718419.84564461,0,0.014086025104603,0
0.014218912133891,718086.86415848,0,0.014218912133891,0
0.01435179916318,717750.60650527,0,0.01435179916318,0
0.014484686192469,717411.0460473,0,0.014484686192469,0
0.014617573221757,717068.14643725,0,0.014617573221757,0
0.014750460251046,716721.8576243,0,0.014750460251046,0
0.014883347280335,716372.11021122,0,0.014883347280335,0
0.015016234309623,716018.80748189,0,0.015016234309623,0
0.015149121338912,715661.8141373,0,0.015149121338912,0
0.015282008368201,715300.94038099,0,0.015282008368201,0
0.01541489539749,714935.91943414,0,0.01541489539749,0
0.015547782426778,714566.37576756,0,0.015547782426778,0
0.015680669456067,714191.78021803,0,0.015680669456067,0
0.015813556485356,713811.38657432,0,0.015813556485356,0
0.015946443514644,713424.14198347,0,0.015946443514644,0
0.016079330543933,713029.98293206,0,0.016079330543933,0
0.016212217573222,712629.90148186,0,0.016212217573222,0
0.01634510460251,712224.60003315,0,0.01634510460251,0
0.016477991631799,711814.57551174,0,0.016477991631799,0
0.016610878661088,711400.1790847,0,0.016610878661088,0
0.016743765690377,710981.65851732,0,0.016743765690377,0
0.016876652719665,710559.18821727,0,0.016876652719665,0
0.017009539748954,710132.89054489,0,0.017009539748954,0
0.017142426778243,709702.85092859,0,0.017142426778243,0
0.017275313807531,709269.12858586,0,0.017275313807531,0
0.01740820083682,708831.76412737,0,0.01740820083682,0
0.017541087866109,708390.78494997,0,0.017541087866109,0
0.017673974895397,707946.20906133,0,0.017673974895397,0
0.017806861924686,707498.04779169,0,0.017806861924686,0
0.017939748953975,707046.30771604,0,0.017939748953975,0
0.018072635983264,706590.99201578,0,0.018072635983264,0
0.018205523012552,706132.10144198,0,0.018205523012552,0
0.018338410041841,705669.63499526,0,0.018338410041841,0
0.01847129707113,705203.59040327,0,0.01847129707113,0
0.018604184100418,704733.9644526,0,0.018604184100418,0
0.018737071129707,704260.75321499,0,0.018737071129707,0
0.018869958158996,703783.95219454,0,0.018869958158996,0
0.019002845188285,703303.55641375,0,0.019002845188285,0
0.019135732217573,702819.56044865,0,0.019135732217573,0
0.019268619246862,702331.95841721,0,0.019268619246862,0
0.019401506276151,701840.74391985,0,0.019401506276151,0
0.019534393305439,701345.90992492,0,0.019534393305439,0
0.019667280334728,700847.4485858,0,0.019667280334728,0
0.019800167364017,700345.35096784,0,0.019800167364017,0
0.019933054393305,699839.60665281,0,0.019933054393305,0
0.020065941422594,699330.20317407,0,0.020065941422594,0
0.020198828451883,698817.12521533,0,0.020198828451883,0
0.020331715481172,698300.35347811,0,0.020331715481172,0
0.02046460251046,697779.86308348,0,0.02046460251046,0
0.020597489539749,697255.62131845,0,0.020597489539749,0
0.020730376569038,696727.5844596,0,0.020730376569038,0
0.020863263598326,696195.69329718,0,0.020863263598326,0
0.020996150627615,695659.86682832,0,0.020996150627615,0
0.021129037656904,695119.99337127,0,0.021129037656904,0
0.021261924686192,694575.91804599,0,0.021261924686192,0
0.021394811715481,694027.4251356,0,0.021394811715481,0
0.02152769874477,693474.21323562,0,0.02152769874477,0
0.021660585774059,692915.86024219,0,0.021660585774059,0
0.021793472803347,692351.77402452,0,0.021793472803347,0
0.021926359832636,691781.12292852,0,0.021926359832636,0
0.022059246861925,691202.73786515,0,0.022059246861925,0
0.022192133891213,690614.97436542,0,0.022192133891213,0
0.022325020920502,690015.51823422,0,0.022325020920502,0
0.022457907949791,689401.11174278,0,0.022457907949791,0
0.022590794979079,688767.16787196,0,0.022590794979079,0
0.022723682008368,688107.22683598,0,0.022723682008368,0
0.022856569037657,687412.1904041,0,0.022856569037657,0
0.022989456066946,686669.24317484,0,0.022989456066946,0
0.023122343096234,685860.33281845,0,0.023122343096234,0
0.023255230125523,684960.02898013,0,0.023255230125523,0
0.023388117154812,683932.50682593,0,0.023388117154812,0
0.0235210041841,682727.29736914,0,0.0235210041841,0
0.023653891213389,681273.30042481,0,0.023653891213389,0
0.023786778242678,679470.34995256,0,0.023786778242678,0
0.023919665271967,677177.33132942,0,0.023919665271967,0
0.024052552301255,674285.1254816,0,0.024052552301255,0
0.024185439330544,670921.4838793,0,0.024185439330544,0
0.024318326359833,667183.63068255,0,0.024318326359833,0
0.024451213389121,663145.47496148,0,0.024451213389121,0
0.02458410041841,658863.11566485,0,0.02458410041841,0
0.024716987447699,654379.04321067,0,0.024716987447699,0
0.024849874476987,649725.34598876,0,0.024849874476987,0
0.024982761506276,644926.15709049,0,0.024982761506276,0
0.025115648535565,639999.52089352,0,0.025115648535565,0
0.025248535564854,634958.81662368,0,0.025248535564854,0
0.025381422594142,629813.8435667,0,0.025381422594142,0
0.025514309623431,624571.64782642,0,0.025514309623431,0
0.02564719665272,619237.15160607,0,0.02564719665272,0
0.025780083682008,613813.63153855,0,0.025780083682008,0
0.025912970711297,608303.0815526,0,0.025912970711297,0
0.026045857740586,602706.48732547,0,0.026045857740586,0
0.026178744769874,597024.03292252,0,0.026178744769874,0
0.026311631799163,591255.25528823,0,0.026311631799163,0
0.026444518828452,585399.15847035,0,0.026444518828452,0
0.026577405857741,579454.29655359,0,0.026577405857741,0
0.026710292887029,573418.83203901,0,0.026710292887029,0
0.026843179916318,567290.5746676,0,0.026843179916318,0
0.026976066945607,561067.00432514,0,0.026976066945607,0
0.027108953974895,554745.28058263,0,0.027108953974895,0
0.027241841004184,548322.24054443,0,0.027241841004184,0
0.027374728033473,541794.38593348,0,0.027374728033473,0
0.027507615062762,535157.85968757,0,0.027507615062762,0
0.02764050209205,528408.41172896,0,0.02764050209205,0
0.027773389121339,521541.35296159,0,0.027773389121339,0
0.027906276150628,514551.49590759,0,0.027906276150628,0
0.028039163179916,507433.07967849,0,0.028039163179916,0
0.028172050209205,500179.67614431,0,0.028172050209205,0
0.028304937238494,492784.07316767,0,0.028304937238494,0
0.028437824267782,485238.12955407,0,0.028437824267782,0
0.028570711297071,477532.59486676,0,0.028570711297071,0
0.02870359832636,469656.88538395,0,0.02870359832636,0
0.028836485355649,461598.80513814,0,0.028836485355649,0
0.028969372384937,453344.19805275,0,0.028969372384937,0
0.029102259414226,444876.51353199,0,0.029102259414226,0
0.029235146443515,436176.26329126,0,0.029235146443515,0
0.029368033472803,427220.34152644,0,0.029368033472803,0
0.029500920502092,417981.17346675,0,0.029500920502092,0
0.029633807531381,408425.64865904,0,0.029633807531381,0
0.029766694560669,398513.78469086,0,0.029766694560669,0
0.029899581589958,388197.0541738,0,0.029899581589958,0
0.030032468619247,377416.29242823,0,0.030032468619247,0
0.030165355648536,366099.0853292,0,0.030165355648536,0
0.030298242677824,354156.51641024,0,0.030298242677824,0
0.030431129707113,341479.13044394,0,0.030431129707113,0
0.030564016736402,327931.94944665,0,0.030564016736402,0
0.03069690376569,313348.3608765,0,0.03069690376569,0
0.030829790794979,297522.69568738,0,0.030829790794979,0
0.030962677824268,280201.34346174,0,0.030962677824268,0
0.031095564853556,261072.34766927,0,0.031095564853556,0
0.031228451882845,239753.65563818,0,0.031228451882845,0
0.031361338912134,215780.70992507,0,0.031361338912134,0
0.031494225941423,188595.18024865,0,0.031494225941423,0
0.031627112970711,157539.11337009,0,0.031627112970711,0
0.03176,121864.66991415,0,0.03176,0
