id,pressure,x,y,z
0,237257.90839851,0,0,0
0.0001328870292887,237254.50065099,0,0.0001328870292887,0
0.00026577405857741,237250.80792574,0,0.00026577405857741,0
0.00039866108786611,237246.62764775,0,0.00039866108786611,0
0.00053154811715481,237241.81581395,0,0.00053154811715481,0
0.00066443514644351,237236.27005368,0,0.00066443514644351,0
0.00079732217573222,237229.91758752,0,0.00079732217573222,0
0.00093020920502092,237222.70666814,0,0.00093020920502092,0
0.0010630962343096,237214.60049634,0,0.0010630962343096,0
0.0011959832635983,237205.57289635,0,0.0011959832635983,0
0.001328870292887,237195.6052418,0,0.001328870292887,0
0.0014617573221757,237184.68427062,0,0.0014617573221757,0
0.0015946443514644,237172.80053187,0,0.0015946443514644,0
0.0017275313807531,237159.94728169,0,0.0017275313807531,0
0.0018604184100418,237146.11969851,0,0.0018604184100418,0
0.0019933054393305,237131.31432532,0,0.0019933054393305,0
0.0021261924686192,237115.52867306,0,0.0021261924686192,0
0.0022590794979079,237098.76093888,0,0.0022590794979079,0
0.0023919665271967,237081.00980578,0,0.0023919665271967,0
0.0025248535564854,237062.27430022,0,0.0025248535564854,0
0.0026577405857741,237042.55369094,0,0.0026577405857741,0
0.0027906276150628,237021.84741705,0,0.0027906276150628,0
0.0029235146443515,237000.15503692,0,0.0029235146443515,0
0.0030564016736402,236977.47619191,0,0.0030564016736402,0
0.0031892887029289,236953.81058062,0,0.0031892887029289,0
0.0033221757322176,236929.15794066,0,0.0033221757322176,0
0.0034550627615063,236903.5180358,0,0.0034550627615063,0
0.003587949790795,236876.89064694,0,0.003587949790795,0
0.0037208368200837,236849.27556594,0,0.0037208368200837,0
0.0038537238493724,236820.67259143,0,0.0038537238493724,0
0.0039866108786611,236791.08152631,0,0.0039866108786611,0
0.0041194979079498,236760.50217641,0,0.0041194979079498,0
0.0042523849372385,236728.93435037,0,0.0042523849372385,0
0.0043852719665272,236696.37786063,0,0.0043852719665272,0
0.0045181589958159,236662.83252561,0,0.0045181589958159,0
0.0046510460251046,236628.29817338,0,0.0046510460251046,0
0.0047839330543933,236592.7746473,0,0.0047839330543933,0
0.004916820083682,236556.26181424,0,0.004916820083682,0
0.0050497071129707,236518.75957629,0,0.0050497071129707,0
0.0051825941422594,236480.2678875,0,0.0051825941422594,0
0.0053154811715481,236440.78677743,0,0.0053154811715481,0
0.0054483682008368,236400.31638446,0,0.0054483682008368,0
0.0055812552301255,236358.85700264,0,0.0055812552301255,0
0.0057141422594142,236316.40914767,0,0.0057141422594142,0
0.0058470292887029,236272.9736497,0,0.0058470292887029,0
0.0059799163179916,236228.551784,0,0.0059799163179916,0
0.0061128033472803,236183.14545465,0,0.0061128033472803,0
0.006245690376569,236136.75745308,0,0.006245690376569,0
0.0063785774058577,236089.39182173,0,0.0063785774058577,0
0.0065114644351464,236041.05436556,0,0.0065114644351464,0
0.0066443514644351,235991.75337171,0,0.0066443514644351,0
0.0067772384937238,235941.50062174,0,0.0067772384937238,0
0.0069101255230126,235890.31281562,0,0.0069101255230126,0
0.0070430125523013,235838.21357483,0,0.0070430125523013,0
0.00717589958159,235785.23626008,0,0.00717589958159,0
0.0073087866108787,235731.42793498,0,0.0073087866108787,0
0.0074416736401674,235676.85494161,0,0.0074416736401674,0
0.0075745606694561,235621.61074365,0,0.0075745606694561,0
0.0077074476987448,235565.82695903,0,0.0077074476987448,0
0.0078403347280335,235509.68887932,0,0.0078403347280335,0
0.0079732217573222,235453.45730017,0,0.0079732217573222,0
0.0081061087866109,235397.13497145,0,0.0081061087866109,0
0.0082389958158996,235340.48571542,0,0.0082389958158996,0
0.0083718828451883,235283.34232679,0,0.0083718828451883,0
0.008504769874477,235225.58639911,0,0.008504769874477,0
0.0086376569037657,235167.13405111,0,0.0086376569037657,0
0.0087705439330544,235107.92582745,0,0.0087705439330544,0
0.0089034309623431,235047.91955318,0,0.0089034309623431,0
0.0090363179916318,234987.08527799,0,0.0090363179916318,0
0.0091692050209205,234925.40169913,0,0.0091692050209205,0
0.0093020920502092,234862.85363048,0,0.0093020920502092,0
0.0094349790794979,234799.43021182,0,0.0094349790794979,0
0.0095678661087866,234735.12364189,0,0.0095678661087866,0
0.0097007531380753,234669.92828193,0,0.0097007531380753,0
0.009833640167364,234603.84002143,0,0.009833640167364,0
0.0099665271966527,234536.85582939,0,0.0099665271966527,0
0.010099414225941,234468.97343678,0,0.010099414225941,0
0.01023230125523,234400.1911119,0,0.01023230125523,0
0.010365188284519,234330.50750141,0,0.010365188284519,0
0.010498075313808,234259.92151782,0,0.010498075313808,0
0.010630962343096,234188.43225996,0,0.010630962343096,0
0.010763849372385,234116.03895653,0,0.010763849372385,0
0.010896736401674,234042.74092631,0,0.010896736401674,0
0.011029623430962,233968.53754979,0,0.011029623430962,0
0.011162510460251,233893.42824921,0,0.011162510460251,0
0.01129539748954,233817.41247419,0,0.01129539748954,0
0.011428284518828,233740.4896916,0,0.011428284518828,0
0.011561171548117,233662.65937816,0,0.011561171548117,0
0.011694058577406,233583.92101502,0,0.011694058577406,0
0.011826945606695,233504.27408361,0,0.011826945606695,0
0.011959832635983,233423.71806233,0,0.011959832635983,0
0.012092719665272,233342.25242362,0,0.012092719665272,0
0.012225606694561,233259.87663102,0,0.012225606694561,0
0.012358493723849,233176.59013603,0,0.012358493723849,0
0.012491380753138,233092.39237419,0,0.012491380753138,0
0.012624267782427,233007.28276007,0,0.012624267782427,0
0.012757154811715,232921.26068047,0,0.012757154811715,0
0.012890041841004,232834.32548508,0,0.012890041841004,0
0.013022928870293,232746.47647345,0,0.013022928870293,0
0.013155815899582,232657.71287662,0,0.013155815899582,0
0.01328870292887,232568.03383139,0,0.01328870292887,0
0.013421589958159,232477.43834393,0,0.013421589958159,0
0.013554476987448,232385.92523841,0,0.013554476987448,0
0.013687364016736,232293.49308456,0,0.013687364016736,0
0.013820251046025,232200.14009524,0,0.013820251046025,0
0.013953138075314,232105.86398177,0,0.013953138075314,0
0.014086025104603,232010.66174957,0,0.014086025104603,0
0.014218912133891,231914.52940943,0,0.014218912133891,0
0.01435179916318,231817.46156952,0,0.01435179916318,0
0.014484686192469,231719.45085904,0,0.014484686192469,0
0.014617573221757,231620.48711382,0,0.014617573221757,0
0.014750460251046,231520.55622571,0,0.014750460251046,0
0.014883347280335,231419.63851683,0,0.014883347280335,0
0.015016234309623,231317.7064426,0,0.015016234309623,0
0.015149121338912,231214.72134634,0,0.015149121338912,0
0.015282008368201,231110.62887379,0,0.015282008368201,0
0.01541489539749,231005.35249437,0,0.01541489539749,0
0.015547782426778,230898.78434729,0,0.015547782426778,0
0.015680669456067,230790.77230816,0,0.015680669456067,0
0.015813556485356,230681.1017154,0,0.015813556485356,0
0.015946443514644,230569.46955192,0,0.015946443514644,0
0.016079330543933,230455.85804063,0,0.016079330543933,0
0.016212217573222,230340.55370055,0,0.016212217573222,0
0.01634510460251,230223.7595222,0,0.01634510460251,0
0.016477991631799,230105.61924392,0,0.016477991631799,0
0.016610878661088,229986.23457209,0,0.016610878661088,0
0.016743765690377,229865.67739607,0,0.016743765690377,0
0.016876652719665,229743.99845251,0,0.016876652719665,0
0.017009539748954,229621.2334713,0,0.017009539748954,0
0.017142426778243,229497.40753488,0,0.017142426778243,0
0.017275313807531,229372.53817049,0,0.017275313807531,0
0.01740820083682,229246.63754332,0,0.01740820083682,0
0.017541087866109,229119.71401217,0,0.017541087866109,0
0.017673974895397,228991.77323265,0,0.017673974895397,0
0.017806861924686,228862.81893944,0,0.017806861924686,0
0.017939748953975,228732.85350089,0,0.017939748953975,0
0.018072635983264,228601.87831182,0,0.018072635983264,0
0.018205523012552,228469.89407152,0,0.018205523012552,0
0.018338410041841,228336.90097998,0,0.018338410041841,0
0.01847129707113,228202.89887572,0,0.01847129707113,0
0.018604184100418,228067.8873317,0,0.018604184100418,0
0.018737071129707,227931.86572072,0,0.018737071129707,0
0.018869958158996,227794.8332581,0,0.018869958158996,0
0.019002845188285,227656.7890267,0,0.019002845188285,0
0.019135732217573,227517.73198745,0,0.019135732217573,0
0.019268619246862,227377.66097635,0,0.019268619246862,0
0.019401506276151,227236.57468791,0,0.019401506276151,0
0.019534393305439,227094.47164288,0,0.019534393305439,0
0.019667280334728,226951.35013651,0,0.019667280334728,0
0.019800167364017,226807.20816125,0,0.019800167364017,0
0.019933054393305,226662.04329461,0,0.019933054393305,0
0.020065941422594,226515.85253902,0,0.020065941422594,0
0.020198828451883,226368.6320946,0,0.020198828451883,0
0.020331715481172,226220.37703784,0,0.020331715481172,0
0.02046460251046,226071.08086818,0,0.02046460251046,0
0.020597489539749,225920.73486854,0,0.020597489539749,0
0.020730376569038,225769.32720401,0,0.020730376569038,0
0.020863263598326,225616.8416516,0,0.020863263598326,0
0.020996150627615,225463.25581043,0,0.020996150627615,0
0.021129037656904,225308.53857971,0,0.021129037656904,0
0.021261924686192,225152.64660536,0,0.021261924686192,0
0.021394811715481,224995.51927336,0,0.021394811715481,0
0.02152769874477,224837.07165558,0,0.02152769874477,0
0.021660585774059,224677.18457082,0,0.021660585774059,0
0.021793472803347,224515.69058131,0,0.021793472803347,0
0.021926359832636,224352.35426264,0,0.021926359832636,0
0.022059246861925,224186.8444052,0,0.022059246861925,0
0.022192133891213,224018.69484775,0,0.022192133891213,0
0.022325020920502,223847.24929454,0,0.022325020920502,0
0.022457907949791,223671.58356639,0,0.022457907949791,0
0.022590794979079,223490.39605807,0,0.022590794979079,0
0.022723682008368,223301.85340083,0,0.022723682008368,0
0.022856569037657,223103.37301322,0,0.022856569037657,0
0.022989456066946,222891.31673262,0,0.022989456066946,0
0.023122343096234,222660.55916838,0,0.023122343096234,0
0.023255230125523,222403.87954961,0,0.023255230125523,0
0.023388117154812,222111.10489514,0,0.023388117154812,0
0.0235210041841,221767.90282321,0,0.0235210041841,0
0.023653891213389,221354.08074357,0,0.023653891213389,0
0.023786778242678,220841.18960194,0,0.023786778242678,0
0.023919665271967,220189.14785316,0,0.023919665271967,0
0.024052552301255,219367.0161074,0,0.024052552301255,0
0.024185439330544,218411.36809392,0,0.024185439330544,0
0.024318326359833,217350.07318571,0,0.024318326359833,0
0.024451213389121,216204.35195474,0,0.024451213389121,0
0.02458410041841,214990.34580099,0,0.02458410041841,0
0.024716987447699,213720.3154897,0,0.024716987447699,0
0.024849874476987,212403.5562882,0,0.024849874476987,0
0.024982761506276,211047.09666386,0,0.024982761506276,0
0.025115648535565,209656.23167871,0,0.025115648535565,0
0.025248535564854,208234.93013225,0,0.025248535564854,0
0.025381422594142,206786.14527609,0,0.025381422594142,0
0.025514309623431,205312.05187662,0,0.025514309623431,0
0.02564719665272,203814.22701917,0,0.02564719665272,0
0.025780083682008,202293.7879363,0,0.025780083682008,0
0.025912970711297,200751.49700239,0,0.025912970711297,0
0.026045857740586,199187.84163831,0,0.026045857740586,0
0.026178744769874,197603.09503792,0,0.026178744769874,0
0.026311631799163,195997.36222819,0,0.026311631799163,0
0.026444518828452,194370.61490588,0,0.026444518828452,0
0.026577405857741,192722.71767668,0,0.026577405857741,0
0.026710292887029,191053.4476983,0,0.026710292887029,0
0.026843179916318,189362.50925203,0,0.026843179916318,0
0.026976066945607,187649.54440215,0,0.026976066945607,0
0.027108953974895,185914.14062339,0,0.027108953974895,0
0.027241841004184,184155.83606264,0,0.027241841004184,0
0.027374728033473,182374.12293688,0,0.027374728033473,0
0.027507615062762,180568.449443,0,0.027507615062762,0
0.02764050209205,178738.22045767,0,0.02764050209205,0
0.027773389121339,176882.79722945,0,0.027773389121339,0
0.027906276150628,175001.49620637,0,0.027906276150628,0
0.028039163179916,173093.58709481,0,0.028039163179916,0
0.028172050209205,171158.29020803,0,0.028172050209205,0
0.028304937238494,169194.77313138,0,0.028304937238494,0
0.028437824267782,167202.14670483,0,0.028437824267782,0
0.028570711297071,165179.4603007,0,0.028570711297071,0
0.02870359832636,163125.69635325,0,0.02870359832636,0
0.028836485355649,161039.76407751,0,0.028836485355649,0
0.028969372384937,158920.49229535,0,0.028969372384937,0
0.029102259414226,156766.62126826,0,0.029102259414226,0
0.029235146443515,154576.79341657,0,0.029235146443515,0
0.029368033472803,152349.54278608,0,0.029368033472803,0
0.029500920502092,150083.2831029,0,0.029500920502092,0
0.029633807531381,147776.29423848,0,0.029633807531381,0
0.029766694560669,145426.70688907,0,0.029766694560669,0
0.029899581589958,143032.4852591,0,0.029899581589958,0
0.030032468619247,140591.40752896,0,0.030032468619247,0
0.030165355648536,138101.04388805,0,0.030165355648536,0
0.030298242677824,135558.73192954,0,0.030298242677824,0
0.030431129707113,132961.54924194,0,0.030431129707113,0
0.030564016736402,130306.28310618,0,0.030564016736402,0
0.03069690376569,127589.39733214,0,0.03069690376569,0
0.030829790794979,124806.99646794,0,0.030829790794979,0
0.030962677824268,121954.78792282,0,0.030962677824268,0
0.031095564853556,119028.04300423,0,0.031095564853556,0
0.031228451882845,116021.55854684,0,0.031228451882845,0
0.031361338912134,112929.621793,0,0.031361338912134,0
0.031494225941423,109745.98259445,0,0.031494225941423,0
0.031627112970711,106463.83901285,0,0.031627112970711,0
0.03176,103075.84523975,0,0.03176,0
