id,pressure,x,y,z
0,116584.06117119,0,0,0
0.0001328870292887,116583.04518816,0,0.0001328870292887,0
0.00026577405857741,116581.94424871,0,0.00026577405857741,0
0.00039866108786611,116580.69796944,0,0.00039866108786611,0
0.00053154811715481,116579.26343453,0,0.00053154811715481,0
0.00066443514644351,116577.61014514,0,0.00066443514644351,0
0.00079732217573222,116575.71642931,0,0.00079732217573222,0
0.00093020920502092,116573.56689018,0,0.00093020920502092,0
0.0010630962343096,116571.15059208,0,0.0010630962343096,0
0.0011959832635983,116568.45977127,0,0.0011959832635983,0
0.001328870292887,116565.48891941,0,0.001328870292887,0
0.0014617573221757,116562.23413222,0,0.0014617573221757,0
0.0015946443514644,116558.69264635,0,0.0015946443514644,0
0.0017275313807531,116554.8625103,0,0.0017275313807531,0
0.0018604184100418,116550.74235036,0,0.0018604184100418,0
0.0019933054393305,116546.33120433,0,0.0019933054393305,0
0.0021261924686192,116541.62840317,0,0.0021261924686192,0
0.0022590794979079,116536.6334869,0,0.0022590794979079,0
0.0023919665271967,116531.34614466,0,0.0023919665271967,0
0.0025248535564854,116525.76617203,0,0.0025248535564854,0
0.0026577405857741,116519.89344044,0,0.0026577405857741,0
0.0027906276150628,116513.72787524,0,0.0027906276150628,0
0.0029235146443515,116507.26943967,0,0.0029235146443515,0
0.0030564016736402,116500.51812299,0,0.0030564016736402,0
0.0031892887029289,116493.47393131,0,0.0031892887029289,0
0.0033221757322176,116486.13687999,0,0.0033221757322176,0
0.0034550627615063,116478.50698683,0,0.0034550627615063,0
0.003587949790795,116470.5842652,0,0.003587949790795,0
0.0037208368200837,116462.36871619,0,0.0037208368200837,0
0.0038537238493724,116453.8603191,0,0.0038537238493724,0
0.0039866108786611,116445.05901887,0,0.0039866108786611,0
0.0041194979079498,116435.96470922,0,0.0041194979079498,0
0.0042523849372385,116426.5772093,0,0.0042523849372385,0
0.0043852719665272,116416.89623133,0,0.0043852719665272,0
0.0045181589958159,116406.92133516,0,0.0045181589958159,0
0.0046510460251046,116396.65186469,0,0.0046510460251046,0
0.0047839330543933,116386.08685838,0,0.0047839330543933,0
0.004916820083682,116375.22492359,0,0.004916820083682,0
0.0050497071129707,116364.06405979,0,0.0050497071129707,0
0.0051825941422594,116352.60140988,0,0.0051825941422594,0
0.0053154811715481,116340.83291044,0,0.0053154811715481,0
0.0054483682008368,116328.75279968,0,0.0054483682008368,0
0.0055812552301255,116316.35292528,0,0.0055812552301255,0
0.0057141422594142,116303.62177062,0,0.0057141422594142,0
0.0058470292887029,116290.54308498,0,0.0058470292887029,0
0.0059799163179916,116277.09395646,0,0.0059799163179916,0
0.0061128033472803,116263.24210106,0,0.0061128033472803,0
0.006245690376569,116248.94204895,0,0.006245690376569,0
0.0063785774058577,116234.12977942,0,0.0063785774058577,0
0.0065114644351464,116218.71517352,0,0.0065114644351464,0
0.0066443514644351,116202.57139644,0,0.0066443514644351,0
0.0067772384937238,116185.51996109,0,0.0067772384937238,0
0.0069101255230126,116167.30971578,0,0.0069101255230126,0
0.0070430125523013,116147.58728483,0,0.0070430125523013,0
0.00717589958159,116125.85548511,0,0.00717589958159,0
0.0073087866108787,116101.41482788,0,0.0073087866108787,0
0.0074416736401674,116073.28122531,0,0.0074416736401674,0
0.0075745606694561,116040.07022291,0,0.0075745606694561,0
0.0077074476987448,115999.83414174,0,0.0077074476987448,0
0.0078403347280335,115949.83297606,0,0.0078403347280335,0
0.0079732217573222,115886.21210302,0,0.0079732217573222,0
0.0081061087866109,115806.01016259,0,0.0081061087866109,0
0.0082389958158996,115712.61613902,0,0.0082389958158996,0
0.0083718828451883,115608.62617004,0,0.0083718828451883,0
0.008504769874477,115496.02962686,0,0.008504769874477,0
0.0086376569037657,115376.35154039,0,0.0086376569037657,0
0.0087705439330544,115250.76161326,0,0.0087705439330544,0
0.0089034309623431,115120.15765614,0,0.0089034309623431,0
0.0090363179916318,114985.22944845,0,0.0090363179916318,0
0.0091692050209205,114846.50761596,0,0.0091692050209205,0
0.0093020920502092,114704.40104061,0,0.0093020920502092,0
0.0094349790794979,114559.22549316,0,0.0094349790794979,0
0.0095678661087866,114411.22554814,0,0.0095678661087866,0
0.0097007531380753,114260.59135738,0,0.0097007531380753,0
0.009833640167364,114107.47148885,0,0.009833640167364,0
0.0099665271966527,113951.98275418,0,0.0099665271966527,0
0.010099414225941,113794.21773185,0,0.010099414225941,0
0.01023230125523,113634.25052719,0,0.01023230125523,0
0.010365188284519,113472.14118351,0,0.010365188284519,0
0.010498075313808,113307.93906149,0,0.010498075313808,0
0.010630962343096,113141.68542989,0,0.010630962343096,0
0.010763849372385,112973.4154538,0,0.010763849372385,0
0.010896736401674,112803.15972321,0,0.010896736401674,0
0.011029623430962,112630.94543172,0,0.011029623430962,0
0.011162510460251,112456.79728996,0,0.011162510460251,0
0.01129539748954,112280.7382391,0,0.01129539748954,0
0.011428284518828,112102.79001563,0,0.011428284518828,0
0.011561171548117,111922.97360765,0,0.011561171548117,0
0.011694058577406,111741.30963521,0,0.011694058577406,0
0.011826945606695,111557.81868174,0,0.011826945606695,0
0.011959832635983,111372.52160001,0,0.011959832635983,0
0.012092719665272,111185.4398143,0,0.012092719665272,0
0.012225606694561,110996.59564004,0,0.012225606694561,0
0.012358493723849,110806.01264339,0,0.012358493723849,0
0.012491380753138,110613.71606627,0,0.012491380753138,0
0.012624267782427,110419.7333466,0,0.012624267782427,0
0.012757154811715,110224.09477072,0,0.012757154811715,0
0.012890041841004,110026.83430389,0,0.012890041841004,0
0.013022928870293,109827.99065795,0,0.013022928870293,0
0.013155815899582,109627.60867149,0,0.013155815899582,0
0.01328870292887,109425.74110082,0,0.01328870292887,0
0.013421589958159,109222.45094851,0,0.013421589958159,0
0.013554476987448,109017.81449524,0,0.013554476987448,0
0.013687364016736,108811.92525009,0,0.013687364016736,0
0.013820251046025,108604.89910038,0,0.013820251046025,0
0.013953138075314,108396.88102699,0,0.013953138075314,0
0.014086025104603,108188.05386279,0,0.014086025104603,0
0.014218912133891,107978.64971718,0,0.014218912133891,0
0.01435179916318,107768.96487924,0,0.01435179916318,0
0.014484686192469,107559.37925968,0,0.014484686192469,0
0.014617573221757,107350.38175462,0,0.014617573221757,0
0.014750460251046,107142.60333548,0,0.014750460251046,0
0.014883347280335,106936.86021895,0,0.014883347280335,0
0.015016234309623,106734.21018809,0,0.015016234309623,0
0.015149121338912,106536.02607105,0,0.015149121338912,0
0.015282008368201,106344.09160437,0,0.015282008368201,0
0.01541489539749,106160.72650032,0,0.01541489539749,0
0.015547782426778,105988.94961453,0,0.015547782426778,0
0.015680669456067,105832.69182099,0,0.015680669456067,0
0.015813556485356,105697.07373646,0,0.015813556485356,0
0.015946443514644,105588.76804734,0,0.015946443514644,0
0.016079330543933,105502.86662426,0,0.016079330543933,0
0.016212217573222,105432.83082185,0,0.016212217573222,0
0.01634510460251,105374.0223295,0,0.01634510460251,0
0.016477991631799,105323.15092889,0,0.016477991631799,0
0.016610878661088,105277.8827321,0,0.016610878661088,0
0.016743765690377,105236.56226716,0,0.016743765690377,0
0.016876652719665,105198.01532677,0,0.016876652719665,0
0.017009539748954,105161.40911025,0,0.017009539748954,0
0.017142426778243,105126.15300903,0,0.017142426778243,0
0.017275313807531,105091.82822449,0,0.017275313807531,0
0.01740820083682,105058.13783937,0,0.01740820083682,0
0.017541087866109,105024.87139877,0,0.017541087866109,0
0.017673974895397,104991.8797842,0,0.017673974895397,0
0.017806861924686,104959.05738942,0,0.017806861924686,0
0.017939748953975,104926.32947617,0,0.017939748953975,0
0.018072635983264,104893.64320442,0,0.018072635983264,0
0.018205523012552,104860.96126929,0,0.018205523012552,0
0.018338410041841,104828.25738723,0,0.018338410041841,0
0.01847129707113,104795.51309385,0,0.01847129707113,0
0.018604184100418,104762.71547242,0,0.018604184100418,0
0.018737071129707,104729.8555425,0,0.018737071129707,0
0.018869958158996,104696.92711679,0,0.018869958158996,0
0.019002845188285,104663.92599029,0,0.019002845188285,0
0.019135732217573,104630.84936507,0,0.019135732217573,0
0.019268619246862,104597.69544222,0,0.019268619246862,0
0.019401506276151,104564.46313246,0,0.019401506276151,0
0.019534393305439,104531.15185084,0,0.019534393305439,0
0.019667280334728,104497.76137125,0,0.019667280334728,0
0.019800167364017,104464.29172319,0,0.019800167364017,0
0.019933054393305,104430.74311879,0,0.019933054393305,0
0.020065941422594,104397.11590114,0,0.020065941422594,0
0.020198828451883,104363.41050789,0,0.020198828451883,0
0.020331715481172,104329.62744588,0,0.020331715481172,0
0.02046460251046,104295.76727356,0,0.02046460251046,0
0.020597489539749,104261.83058927,0,0.020597489539749,0
0.020730376569038,104227.818024,0,0.020730376569038,0
0.020863263598326,104193.73023761,0,0.020863263598326,0
0.020996150627615,104159.56791825,0,0.020996150627615,0
0.021129037656904,104125.33178473,0,0.021129037656904,0
0.021261924686192,104091.02259234,0,0.021261924686192,0
0.021394811715481,104056.64114254,0,0.021394811715481,0
0.02152769874477,104022.18829793,0,0.02152769874477,0
0.021660585774059,103987.66500407,0,0.021660585774059,0
0.021793472803347,103953.07232096,0,0.021793472803347,0
0.021926359832636,103918.41146764,0,0.021926359832636,0
0.022059246861925,103883.68388555,0,0.022059246861925,0
0.022192133891213,103848.8913278,0,0.022192133891213,0
0.022325020920502,103814.03598535,0,0.022325020920502,0
0.022457907949791,103779.12066479,0,0.022457907949791,0
0.022590794979079,103744.14903897,0,0.022590794979079,0
0.022723682008368,103709.12600029,0,0.022723682008368,0
0.022856569037657,103674.05815856,0,0.022856569037657,0
0.022989456066946,103638.95454265,0,0.022989456066946,0
0.023122343096234,103603.82758927,0,0.023122343096234,0
0.023255230125523,103568.69453641,0,0.023255230125523,0
0.023388117154812,103533.57938698,0,0.023388117154812,0
0.0235210041841,103498.51567605,0,0.0235210041841,0
0.023653891213389,103463.55037047,0,0.023653891213389,0
0.023786778242678,103428.74936425,0,0.023786778242678,0
0.023919665271967,103394.20522273,0,0.023919665271967,0
0.024052552301255,103359.91671799,0,0.024052552301255,0
0.024185439330544,103325.7937837,0,0.024185439330544,0
0.024318326359833,103291.7728917,0,0.024318326359833,0
0.024451213389121,103257.80928951,0,0.024451213389121,0
0.02458410041841,103223.87150857,0,0.02458410041841,0
0.024716987447699,103189.93747898,0,0.024716987447699,0
0.024849874476987,103155.99178074,0,0.024849874476987,0
0.024982761506276,103122.02369912,0,0.024982761506276,0
0.025115648535565,103088.02584881,0,0.025115648535565,0
0.025248535564854,103053.99320067,0,0.025248535564854,0
0.025381422594142,103019.92239302,0,0.025381422594142,0
0.025514309623431,102985.81124453,0,0.025514309623431,0
0.02564719665272,102951.65840955,0,0.02564719665272,0
0.025780083682008,102917.46313423,0,0.025780083682008,0
0.025912970711297,102883.22508404,0,0.025912970711297,0
0.026045857740586,102848.94422172,0,0.026045857740586,0
0.026178744769874,102814.62072091,0,0.026178744769874,0
0.026311631799163,102780.25490504,0,0.026311631799163,0
0.026444518828452,102745.84720419,0,0.026444518828452,0
0.026577405857741,102711.39812439,0,0.026577405857741,0
0.026710292887029,102676.90822608,0,0.026710292887029,0
0.026843179916318,102642.37810874,0,0.026843179916318,0
0.026976066945607,102607.8084001,0,0.026976066945607,0
0.027108953974895,102573.19974843,0,0.027108953974895,0
0.027241841004184,102538.55281711,0,0.027241841004184,0
0.027374728033473,102503.86828084,0,0.027374728033473,0
0.027507615062762,102469.14682287,0,0.027507615062762,0
0.02764050209205,102434.38913307,0,0.02764050209205,0
0.027773389121339,102399.59590657,0,0.027773389121339,0
0.027906276150628,102364.7678428,0,0.027906276150628,0
0.028039163179916,102329.90564477,0,0.028039163179916,0
0.028172050209205,102295.01001859,0,0.028172050209205,0
0.028304937238494,102260.08167307,0,0.028304937238494,0
0.028437824267782,102225.1213195,0,0.028437824267782,0
0.028570711297071,102190.12967139,0,0.028570711297071,0
0.02870359832636,102155.10744433,0,0.02870359832636,0
0.028836485355649,102120.05535585,0,0.028836485355649,0
0.028969372384937,102084.97412523,0,0.028969372384937,0
0.029102259414226,102049.86447334,0,0.029102259414226,0
0.029235146443515,102014.72712247,0,0.029235146443515,0
0.029368033472803,101979.56279605,0,0.029368033472803,0
0.029500920502092,101944.37221827,0,0.029500920502092,0
0.029633807531381,101909.15611368,0,0.029633807531381,0
0.029766694560669,101873.91520644,0,0.029766694560669,0
0.029899581589958,101838.65021948,0,0.029899581589958,0
0.030032468619247,101803.36187312,0,0.030032468619247,0
0.030165355648536,101768.05088333,0,0.030165355648536,0
0.030298242677824,101732.71795908,0,0.030298242677824,0
0.030431129707113,101697.36379878,0,0.030431129707113,0
0.030564016736402,101661.98908507,0,0.030564016736402,0
0.03069690376569,101626.5944777,0,0.03069690376569,0
0.030829790794979,101591.18060322,0,0.030829790794979,0
0.030962677824268,101555.7480406,0,0.030962677824268,0
0.031095564853556,101520.29730083,0,0.031095564853556,0
0.031228451882845,101484.82879813,0,0.031228451882845,0
0.031361338912134,101449.34280929,0,0.031361338912134,0
0.031494225941423,101413.83941615,0,0.031494225941423,0
0.031627112970711,101378.31842439,0,0.031627112970711,0
0.03176,101342.77924883,0,0.03176,0
