id,pressure,x,y,z
0,163157.54017885,0,0,0
0.0001328870292887,163154.06767705,0,0.0001328870292887,0
0.00026577405857741,163150.3047864,0,0.00026577405857741,0
0.00039866108786611,163146.0450896,0,0.00039866108786611,0
0.00053154811715481,163141.14185667,0,0.00053154811715481,0
0.00066443514644351,163135.49078297,0,0.00066443514644351,0
0.00079732217573222,163129.01771897,0,0.00079732217573222,0
0.00093020920502092,163121.66994829,0,0.00093020920502092,0
0.0010630962343096,163113.40998798,0,0.0010630962343096,0
0.0011959832635983,163104.2111816,0,0.0011959832635983,0
0.001328870292887,163094.05456671,0,0.001328870292887,0
0.0014617573221757,163082.92664827,0,0.0014617573221757,0
0.0015946443514644,163070.8178158,0,0.0015946443514644,0
0.0017275313807531,163057.72121833,0,0.0017275313807531,0
0.0018604184100418,163043.6319646,0,0.0018604184100418,0
0.0019933054393305,163028.54655437,0,0.0019933054393305,0
0.0021261924686192,163012.46247415,0,0.0021261924686192,0
0.0022590794979079,162995.37790949,0,0.0022590794979079,0
0.0023919665271967,162977.29154024,0,0.0023919665271967,0
0.0025248535564854,162958.20239449,0,0.0025248535564854,0
0.0026577405857741,162938.10974414,0,0.0026577405857741,0
0.0027906276150628,162917.01302974,0,0.0027906276150628,0
0.0029235146443515,162894.91180572,0,0.0029235146443515,0
0.0030564016736402,162871.80569976,0,0.0030564016736402,0
0.0031892887029289,162847.69438118,0,0.0031892887029289,0
0.0033221757322176,162822.577535,0,0.0033221757322176,0
0.0034550627615063,162796.45483837,0,0.0034550627615063,0
0.003587949790795,162769.32593667,0,0.003587949790795,0
0.0037208368200837,162741.19041651,0,0.0037208368200837,0
0.0038537238493724,162712.04777237,0,0.0038537238493724,0
0.0039866108786611,162681.89736307,0,0.0039866108786611,0
0.0041194979079498,162650.73835282,0,0.0041194979079498,0
0.0042523849372385,162618.56963003,0,0.0042523849372385,0
0.0043852719665272,162585.38969431,0,0.0043852719665272,0
0.0045181589958159,162551.19649825,0,0.0045181589958159,0
0.0046510460251046,162515.98722562,0,0.0046510460251046,0
0.0047839330543933,162479.75797969,0,0.0047839330543933,0
0.004916820083682,162442.50334509,0,0.004916820083682,0
0.0050497071129707,162404.21577181,0,0.0050497071129707,0
0.0051825941422594,162364.88470869,0,0.0051825941422594,0
0.0053154811715481,162324.49538476,0,0.0053154811715481,0
0.0054483682008368,162283.027095,0,0.0054483682008368,0
0.0055812552301255,162240.45078899,0,0.0055812552301255,0
0.0057141422594142,162196.72567913,0,0.0057141422594142,0
0.0058470292887029,162151.79446934,0,0.0058470292887029,0
0.0059799163179916,162105.57664371,0,0.0059799163179916,0
0.0061128033472803,162057.95902583,0,0.0061128033472803,0
0.006245690376569,162008.78249905,0,0.006245690376569,0
0.0063785774058577,161957.82332658,0,0.0063785774058577,0
0.0065114644351464,161904.76687552,0,0.0065114644351464,0
0.0066443514644351,161849.1706559,0,0.0066443514644351,0
0.0067772384937238,161790.41233005,0,0.0067772384937238,0
0.0069101255230126,161727.61658077,0,0.0069101255230126,0
0.0070430125523013,161659.55224178,0,0.0070430125523013,0
0.00717589958159,161584.48759875,0,0.00717589958159,0
0.0073087866108787,161499.98685229,0,0.0073087866108787,0
0.0074416736401674,161402.62381894,0,0.0074416736401674,0
0.0075745606694561,161287.57921852,0,0.0075745606694561,0
0.0077074476987448,161148.07421424,0,0.0077074476987448,0
0.0078403347280335,160974.57362614,0,0.0078403347280335,0
0.0079732217573222,160753.66517679,0,0.0079732217573222,0
0.0081061087866109,160475.01191998,0,0.0081061087866109,0
0.0082389958158996,160150.23505566,0,0.0082389958158996,0
0.0083718828451883,159788.21579712,0,0.0083718828451883,0
0.008504769874477,159395.73955094,0,0.008504769874477,0
0.0086376569037657,158977.98864743,0,0.0086376569037657,0
0.0087705439330544,158538.9192169,0,0.0087705439330544,0
0.0089034309623431,158081.54944517,0,0.0089034309623431,0
0.0090363179916318,157608.18004088,0,0.0090363179916318,0
0.0091692050209205,157120.56285128,0,0.0091692050209205,0
0.0093020920502092,156620.02981721,0,0.0093020920502092,0
0.0094349790794979,156107.59159258,0,0.0094349790794979,0
0.0095678661087866,155584.01296209,0,0.0095678661087866,0
0.0097007531380753,155049.87051359,0,0.0097007531380753,0
0.009833640167364,154505.59673923,0,0.009833640167364,0
0.0099665271966527,153951.51375825,0,0.0099665271966527,0
0.010099414225941,153387.85910385,0,0.010099414225941,0
0.01023230125523,152814.80544249,0,0.01023230125523,0
0.010365188284519,152232.47565537,0,0.010365188284519,0
0.010498075313808,151640.95437605,0,0.010498075313808,0
0.010630962343096,151040.2968217,0,0.010630962343096,0
0.010763849372385,150430.53555996,0,0.010763849372385,0
0.010896736401674,149811.68570337,0,0.010896736401674,0
0.011029623430962,149183.7489101,0,0.011029623430962,0
0.011162510460251,148546.71648279,0,0.011162510460251,0
0.01129539748954,147900.57179233,0,0.01129539748954,0
0.011428284518828,147245.29220421,0,0.011428284518828,0
0.011561171548117,146580.85064922,0,0.011561171548117,0
0.011694058577406,145907.21695433,0,0.011694058577406,0
0.011826945606695,145224.35903216,0,0.011826945606695,0
0.011959832635983,144532.24401706,0,0.011959832635983,0
0.012092719665272,143830.83943165,0,0.012092719665272,0
0.012225606694561,143120.11446979,0,0.012225606694561,0
0.012358493723849,142400.04148967,0,0.012358493723849,0
0.012491380753138,141670.59782571,0,0.012491380753138,0
0.012624267782427,140931.76804995,0,0.012624267782427,0
0.012757154811715,140183.54684532,0,0.012757154811715,0
0.012890041841004,139425.942696,0,0.012890041841004,0
0.013022928870293,138658.9826573,0,0.013022928870293,0
0.013155815899582,137882.71854333,0,0.013155815899582,0
0.01328870292887,137097.23496949,0,0.01328870292887,0
0.013421589958159,136302.65981736,0,0.013421589958159,0
0.013554476987448,135499.17785799,0,0.013554476987448,0
0.013687364016736,134687.04849122,0,0.013687364016736,0
0.013820251046025,133866.62884533,0,0.013820251046025,0
0.013953138075314,133038.40385575,0,0.013953138075314,0
0.014086025104603,132203.02542824,0,0.014086025104603,0
0.014218912133891,131361.36342493,0,0.014218912133891,0
0.01435179916318,130514.57203522,0,0.01435179916318,0
0.014484686192469,129664.1761644,0,0.014484686192469,0
0.014617573221757,128812.18386553,0,0.014617573221757,0
0.014750460251046,127961.23265069,0,0.014750460251046,0
0.014883347280335,127114.7798722,0,0.014883347280335,0
0.015016234309623,126277.35042517,0,0.015016234309623,0
0.015149121338912,125454.85900206,0,0.015149121338912,0
0.015282008368201,124655.02930364,0,0.015282008368201,0
0.01541489539749,123887.9393371,0,0.01541489539749,0
0.015547782426778,123166.73067776,0,0.015547782426778,0
0.015680669456067,122508.53094481,0,0.015680669456067,0
0.015813556485356,121935.65353513,0,0.015813556485356,0
0.015946443514644,121477.15789749,0,0.015946443514644,0
0.016079330543933,121112.5905557,0,0.016079330543933,0
0.016212217573222,120814.44344178,0,0.016212217573222,0
0.01634510460251,120563.21165768,0,0.01634510460251,0
0.016477991631799,120345.06522272,0,0.016477991631799,0
0.016610878661088,120150.19810684,0,0.016610878661088,0
0.016743765690377,119971.65754971,0,0.016743765690377,0
0.016876652719665,119804.51395285,0,0.016876652719665,0
0.017009539748954,119645.27227017,0,0.017009539748954,0
0.017142426778243,119491.45464204,0,0.017142426778243,0
0.017275313807531,119341.30445492,0,0.017275313807531,0
0.01740820083682,119193.576501,0,0.01740820083682,0
0.017541087866109,119047.38818882,0,0.017541087866109,0
0.017673974895397,118902.11404326,0,0.017673974895397,0
0.017806861924686,118757.31090036,0,0.017806861924686,0
0.017939748953975,118612.66486681,0,0.017939748953975,0
0.018072635983264,118467.95371163,0,0.018072635983264,0
0.018205523012552,118323.02020036,0,0.018205523012552,0
0.018338410041841,118177.75318781,0,0.018338410041841,0
0.01847129707113,118032.07421227,0,0.01847129707113,0
0.018604184100418,117885.9279903,0,0.018604184100418,0
0.018737071129707,117739.27567732,0,0.018737071129707,0
0.018869958158996,117592.09008928,0,0.018869958158996,0
0.019002845188285,117444.35231478,0,0.019002845188285,0
0.019135732217573,117296.04931312,0,0.019135732217573,0
0.019268619246862,117147.17221144,0,0.019268619246862,0
0.019401506276151,116997.71509755,0,0.019401506276151,0
0.019534393305439,116847.6741644,0,0.019534393305439,0
0.019667280334728,116697.04710374,0,0.019667280334728,0
0.019800167364017,116545.83267686,0,0.019800167364017,0
0.019933054393305,116394.03041085,0,0.019933054393305,0
0.020065941422594,116241.64038422,0,0.020065941422594,0
0.020198828451883,116088.66307626,0,0.020198828451883,0
0.020331715481172,115935.09926198,0,0.020331715481172,0
0.02046460251046,115780.94994027,0,0.02046460251046,0
0.020597489539749,115626.21628641,0,0.020597489539749,0
0.020730376569038,115470.89962353,0,0.020730376569038,0
0.020863263598326,115315.00140923,0,0.020863263598326,0
0.020996150627615,115158.52323602,0,0.020996150627615,0
0.021129037656904,115001.46684545,0,0.021129037656904,0
0.021261924686192,114843.83415749,0,0.021261924686192,0
0.021394811715481,114685.62731879,0,0.021394811715481,0
0.02152769874477,114526.8487754,0,0.02152769874477,0
0.021660585774059,114367.50137841,0,0.021660585774059,0
0.021793472803347,114207.58853532,0,0.021793472803347,0
0.021926359832636,114047.11442471,0,0.021926359832636,0
0.022059246861925,113886.08429977,0,0.022059246861925,0
0.022192133891213,113724.50491668,0,0.022192133891213,0
0.022325020920502,113562.38513848,0,0.022325020920502,0
0.022457907949791,113399.73678593,0,0.022457907949791,0
0.022590794979079,113236.57583629,0,0.022590794979079,0
0.022723682008368,113072.9241119,0,0.022723682008368,0
0.022856569037657,112908.81165867,0,0.022856569037657,0
0.022989456066946,112744.28009631,0,0.022989456066946,0
0.023122343096234,112579.38733717,0,0.023122343096234,0
0.023255230125523,112414.21423284,0,0.023255230125523,0
0.023388117154812,112248.87393594,0,0.023388117154812,0
0.0235210041841,112083.52508644,0,0.0235210041841,0
0.023653891213389,111918.39038451,0,0.023653891213389,0
0.023786778242678,111753.78275083,0,0.023786778242678,0
0.023919665271967,111590.14217287,0,0.023919665271967,0
0.024052552301255,111427.46472791,0,0.024052552301255,0
0.024185439330544,111265.32531303,0,0.024185439330544,0
0.024318326359833,111103.42393524,0,0.024318326359833,0
0.024451213389121,110941.54906534,0,0.024451213389121,0
0.02458410041841,110779.55172749,0,0.02458410041841,0
0.024716987447699,110617.32717977,0,0.024716987447699,0
0.024849874476987,110454.80196189,0,0.024849874476987,0
0.024982761506276,110291.92473755,0,0.024982761506276,0
0.025115648535565,110128.65981992,0,0.025115648535565,0
0.025248535564854,109964.98259403,0,0.025248535564854,0
0.025381422594142,109800.87628046,0,0.025381422594142,0
0.025514309623431,109636.3296472,0,0.025514309623431,0
0.02564719665272,109471.33539208,0,0.02564719665272,0
0.025780083682008,109305.8889992,0,0.025780083682008,0
0.025912970711297,109139.98793044,0,0.025912970711297,0
0.026045857740586,108973.63105403,0,0.026045857740586,0
0.026178744769874,108806.81824058,0,0.026178744769874,0
0.026311631799163,108639.55007759,0,0.026311631799163,0
0.026444518828452,108471.82766769,0,0.026444518828452,0
0.026577405857741,108303.6524861,0,0.026577405857741,0
0.026710292887029,108135.02627994,0,0.026710292887029,0
0.026843179916318,107965.95099715,0,0.026843179916318,0
0.026976066945607,107796.4287363,0,0.026976066945607,0
0.027108953974895,107626.46171124,0,0.027108953974895,0
0.027241841004184,107456.05222619,0,0.027241841004184,0
0.027374728033473,107285.20265818,0,0.027374728033473,0
0.027507615062762,107113.91544476,0,0.027507615062762,0
0.02764050209205,106942.19307541,0,0.02764050209205,0
0.027773389121339,106770.03808545,0,0.027773389121339,0
0.027906276150628,106597.45305188,0,0.027906276150628,0
0.028039163179916,106424.44059045,0,0.028039163179916,0
0.028172050209205,106251.00335357,0,0.028172050209205,0
0.028304937238494,106077.1440288,0,0.028304937238494,0
0.028437824267782,105902.86533776,0,0.028437824267782,0
0.028570711297071,105728.17003512,0,0.028570711297071,0
0.02870359832636,105553.06090761,0,0.02870359832636,0
0.028836485355649,105377.54077294,0,0.028836485355649,0
0.028969372384937,105201.61247828,0,0.028969372384937,0
0.029102259414226,105025.27889823,0,0.029102259414226,0
0.029235146443515,104848.54293195,0,0.029235146443515,0
0.029368033472803,104671.40749898,0,0.029368033472803,0
0.029500920502092,104493.87553333,0,0.029500920502092,0
0.029633807531381,104315.94997494,0,0.029633807531381,0
0.029766694560669,104137.63375757,0,0.029766694560669,0
0.029899581589958,103958.9297915,0,0.029899581589958,0
0.030032468619247,103779.84093898,0,0.030032468619247,0
0.030165355648536,103600.3699794,0,0.030165355648536,0
0.030298242677824,103420.51955994,0,0.030298242677824,0
0.030431129707113,103240.29212575,0,0.030431129707113,0
0.030564016736402,103059.68982109,0,0.030564016736402,0
0.03069690376569,102878.71434964,0,0.03069690376569,0
0.030829790794979,102697.36677701,0,0.030829790794979,0
0.030962677824268,102515.64725172,0,0.030962677824268,0
0.031095564853556,102333.55461084,0,0.031095564853556,0
0.031228451882845,102151.08582312,0,0.031228451882845,0
0.031361338912134,101968.23520218,0,0.031361338912134,0
0.031494225941423,101784.99329533,0,0.031494225941423,0
0.031627112970711,101601.34531408,0,0.031627112970711,0
0.03176,101417.26891761,0,0.03176,0
