id,pressure,x,y,z
0,554507.89962159,0,0,0
0.0001328870292887,554490.06208367,0,0.0001328870292887,0
0.00026577405857741,554470.73279573,0,0.00026577405857741,0
0.00039866108786611,554448.85128253,0,0.00039866108786611,0
0.00053154811715481,554423.66360574,0,0.00053154811715481,0
0.00066443514644351,554394.63369469,0,0.00066443514644351,0
0.00079732217573222,554361.38031698,0,0.00079732217573222,0
0.00093020920502092,554323.63227511,0,0.00093020920502092,0
0.0010630962343096,554281.19655872,0,0.0010630962343096,0
0.0011959832635983,554233.93570646,0,0.0011959832635983,0
0.001328870292887,554181.75171403,0,0.001328870292887,0
0.0014617573221757,554124.57459562,0,0.0014617573221757,0
0.0015946443514644,554062.35425296,0,0.0015946443514644,0
0.0017275313807531,553995.05469533,0,0.0017275313807531,0
0.0018604184100418,553922.64993074,0,0.0018604184100418,0
0.0019933054393305,553845.12104459,0,0.0019933054393305,0
0.0021261924686192,553762.45412227,0,0.0021261924686192,0
0.0022590794979079,553674.63877136,0,0.0022590794979079,0
0.0023919665271967,553581.66706932,0,0.0023919665271967,0
0.0025248535564854,553483.53281304,0,0.0025248535564854,0
0.0026577405857741,553380.23098202,0,0.0026577405857741,0
0.0027906276150628,553271.75735181,0,0.0027906276150628,0
0.0029235146443515,553158.10821244,0,0.0029235146443515,0
0.0030564016736402,553039.2801587,0,0.0030564016736402,0
0.0031892887029289,552915.26992753,0,0.0031892887029289,0
0.0033221757322176,552786.07426351,0,0.0033221757322176,0
0.0034550627615063,552651.68979663,0,0.0034550627615063,0
0.003587949790795,552512.11291793,0,0.003587949790795,0
0.0037208368200837,552367.33963856,0,0.0037208368200837,0
0.0038537238493724,552217.3654156,0,0.0038537238493724,0
0.0039866108786611,552062.1849242,0,0.0039866108786611,0
0.0041194979079498,551901.79174941,0,0.0041194979079498,0
0.0042523849372385,551736.17796137,0,0.0042523849372385,0
0.0043852719665272,551565.33352407,0,0.0043852719665272,0
0.0045181589958159,551389.24546822,0,0.0045181589958159,0
0.0046510460251046,551207.89673097,0,0.0046510460251046,0
0.0047839330543933,551021.26452628,0,0.0047839330543933,0
0.004916820083682,550829.31805437,0,0.004916820083682,0
0.0050497071129707,550632.01528116,0,0.0050497071129707,0
0.0051825941422594,550429.29840917,0,0.0051825941422594,0
0.0053154811715481,550221.08750777,0,0.0053154811715481,0
0.0054483682008368,550007.27155423,0,0.0054483682008368,0
0.0055812552301255,549787.69583275,0,0.0055812552301255,0
0.0057141422594142,549562.14421086,0,0.0057141422594142,0
0.0058470292887029,549330.31421047,0,0.0058470292887029,0
0.0059799163179916,549091.78194426,0,0.0059799163179916,0
0.0061128033472803,548845.95279752,0,0.0061128033472803,0
0.006245690376569,548591.99206027,0,0.006245690376569,0
0.0063785774058577,548328.72735937,0,0.0063785774058577,0
0.0065114644351464,548054.51142668,0,0.0065114644351464,0
0.0066443514644351,547767.0290796,0,0.0066443514644351,0
0.0067772384937238,547463.02573637,0,0.0067772384937238,0
0.0069101255230126,547137.92557008,0,0.0069101255230126,0
0.0070430125523013,546785.29444082,0,0.0070430125523013,0
0.00717589958159,546396.08451092,0,0.00717589958159,0
0.0073087866108787,545957.57180219,0,0.0073087866108787,0
0.0074416736401674,545451.86188566,0,0.0074416736401674,0
0.0075745606694561,544853.78816515,0,0.0075745606694561,0
0.0077074476987448,544127.95587124,0,0.0077074476987448,0
0.0078403347280335,543224.58454164,0,0.0078403347280335,0
0.0079732217573222,542073.66068878,0,0.0079732217573222,0
0.0081061087866109,540621.06447608,0,0.0081061087866109,0
0.0082389958158996,538926.62420722,0,0.0082389958158996,0
0.0083718828451883,537035.94924793,0,0.0083718828451883,0
0.008504769874477,534983.77582881,0,0.008504769874477,0
0.0086376569037657,532796.52460609,0,0.0086376569037657,0
0.0087705439330544,530494.25555496,0,0.0087705439330544,0
0.0089034309623431,528092.16209707,0,0.0089034309623431,0
0.0090363179916318,525601.71295337,0,0.0090363179916318,0
0.0091692050209205,523031.52466983,0,0.0091692050209205,0
0.0093020920502092,520388.02823354,0,0.0093020920502092,0
0.0094349790794979,517675.97826429,0,0.0094349790794979,0
0.0095678661087866,514898.84184915,0,0.0095678661087866,0
0.0097007531380753,512059.09535794,0,0.0097007531380753,0
0.009833640167364,509158.45090308,0,0.009833640167364,0
0.0099665271966527,506198.02900411,0,0.0099665271966527,0
0.010099414225941,503178.49011626,0,0.010099414225941,0
0.01023230125523,500100.13470019,0,0.01023230125523,0
0.010365188284519,496962.97923079,0,0.010365188284519,0
0.010498075313808,493766.81380191,0,0.010498075313808,0
0.010630962343096,490511.24565351,0,0.010630962343096,0
0.010763849372385,487195.73193324,0,0.010763849372385,0
0.010896736401674,483819.60423116,0,0.010896736401674,0
0.011029623430962,480382.08683845,0,0.011029623430962,0
0.011162510460251,476882.31023602,0,0.011162510460251,0
0.01129539748954,473319.32098483,0,0.01129539748954,0
0.011428284518828,469692.08894165,0,0.011428284518828,0
0.011561171548117,465999.51254487,0,0.011561171548117,0
0.011694058577406,462240.42279099,0,0.011694058577406,0
0.011826945606695,458413.58644537,0,0.011826945606695,0
0.011959832635983,454517.70899464,0,0.011959832635983,0
0.012092719665272,450551.43785022,0,0.012092719665272,0
0.012225606694561,446513.36635344,0,0.012225606694561,0
0.012358493723849,442402.03921464,0,0.012358493723849,0
0.012491380753138,438215.96014798,0,0.012491380753138,0
0.012624267782427,433953.60264888,0,0.012624267782427,0
0.012757154811715,429613.4251155,0,0.012757154811715,0
0.012890041841004,425193.89185626,0,0.012890041841004,0
0.013022928870293,420693.50197634,0,0.013022928870293,0
0.013155815899582,416110.82872764,0,0.013155815899582,0
0.01328870292887,411444.57267873,0,0.01328870292887,0
0.013421589958159,406693.63306735,0,0.013421589958159,0
0.013554476987448,401857.20300337,0,0.013554476987448,0
0.013687364016736,396934.8958841,0,0.013687364016736,0
0.013820251046025,391926.91257695,0,0.013820251046025,0
0.013953138075314,386834.26176181,0,0.013953138075314,0
0.014086025104603,381659.04949241,0,0.014086025104603,0
0.014218912133891,376404.85877,0,0.014218912133891,0
0.01435179916318,371077.24602841,0,0.01435179916318,0
0.014484686192469,365684.38929728,0,0.014484686192469,0
0.014617573221757,360237.93293738,0,0.014617573221757,0
0.014750460251046,354754.08686477,0,0.014750460251046,0
0.014883347280335,349255.05490997,0,0.014883347280335,0
0.015016234309623,343770.88842888,0,0.015016234309623,0
0.015149121338912,338341.88881282,0,0.015149121338912,0
0.015282008368201,333021.71782305,0,0.015282008368201,0
0.01541489539749,327881.41986232,0,0.01541489539749,0
0.015547782426778,323014.61818274,0,0.015547782426778,0
0.015680669456067,318544.22124972,0,0.015680669456067,0
0.015813556485356,314631.0708288,0,0.015813556485356,0
0.015946443514644,311485.08619838,0,0.015946443514644,0
0.016079330543933,308970.27937731,0,0.016079330543933,0
0.016212217573222,306900.24375279,0,0.016212217573222,0
0.01634510460251,305142.92581913,0,0.01634510460251,0
0.016477991631799,303604.77503982,0,0.016477991631799,0
0.016610878661088,302219.51428494,0,0.016610878661088,0
0.016743765690377,300940.18449205,0,0.016743765690377,0
0.016876652719665,299733.50919624,0,0.016876652719665,0
0.017009539748954,298575.90261092,0,0.017009539748954,0
0.017142426778243,297450.64203466,0,0.017142426778243,0
0.017275313807531,296345.86504783,0,0.017275313807531,0
0.01740820083682,295253.15095183,0,0.01740820083682,0
0.017541087866109,294166.51604322,0,0.017541087866109,0
0.017673974895397,293081.70200882,0,0.017673974895397,0
0.017806861924686,291995.6719337,0,0.017806861924686,0
0.017939748953975,290906.25335383,0,0.017939748953975,0
0.018072635983264,289811.88545264,0,0.018072635983264,0
0.018205523012552,288711.44001508,0,0.018205523012552,0
0.018338410041841,287604.09461737,0,0.018338410041841,0
0.01847129707113,286489.24280964,0,0.01847129707113,0
0.018604184100418,285366.43049554,0,0.018604184100418,0
0.018737071129707,284235.31086334,0,0.018737071129707,0
0.018869958158996,283095.61245348,0,0.018869958158996,0
0.019002845188285,281947.11652803,0,0.019002845188285,0
0.019135732217573,280789.64102632,0,0.019135732217573,0
0.019268619246862,279623.02918371,0,0.019268619246862,0
0.019401506276151,278447.14145182,0,0.019401506276151,0
0.019534393305439,277261.84975601,0,0.019534393305439,0
0.019667280334728,276067.03340759,0,0.019667280334728,0
0.019800167364017,274862.5761879,0,0.019800167364017,0
0.019933054393305,273648.36426253,0,0.019933054393305,0
0.020065941422594,272424.28468478,0,0.020065941422594,0
0.020198828451883,271190.22431836,0,0.020198828451883,0
0.020331715481172,269946.0690607,0,0.020331715481172,0
0.02046460251046,268691.70328454,0,0.02046460251046,0
0.020597489539749,267427.00944266,0,0.020597489539749,0
0.020730376569038,266151.86780038,0,0.020730376569038,0
0.020863263598326,264866.15627672,0,0.020863263598326,0
0.020996150627615,263569.75038835,0,0.020996150627615,0
0.021129037656904,262262.52330378,0,0.021129037656904,0
0.021261924686192,260944.34602847,0,0.021261924686192,0
0.021394811715481,259615.08775827,0,0.021394811715481,0
0.02152769874477,258274.61645869,0,0.02152769874477,0
0.021660585774059,256922.79975515,0,0.021660585774059,0
0.021793472803347,255559.50625652,0,0.021793472803347,0
0.021926359832636,254184.60748609,0,0.021926359832636,0
0.022059246861925,252797.98066623,0,0.022059246861925,0
0.022192133891213,251399.51270375,0,0.022192133891213,0
0.022325020920502,249989.10586513,0,0.022325020920502,0
0.022457907949791,248566.68582902,0,0.022457907949791,0
0.022590794979079,247132.21308333,0,0.022590794979079,0
0.022723682008368,245685.6990261,0,0.022723682008368,0
0.022856569037657,244227.22868113,0,0.022856569037657,0
0.022989456066946,242756.99271321,0,0.022989456066946,0
0.023122343096234,241275.3325162,0,0.023122343096234,0
0.023255230125523,239782.80367543,0,0.023255230125523,0
0.023388117154812,238280.26525246,0,0.023388117154812,0
0.0235210041841,236769.00535601,0,0.0235210041841,0
0.023653891213389,235250.91769792,0,0.023653891213389,0
0.023786778242678,233728.74978111,0,0.023786778242678,0
0.023919665271967,232206.45171643,0,0.023919665271967,0
0.024052552301255,230683.85751484,0,0.024052552301255,0
0.024185439330544,229156.86864214,0,0.024185439330544,0
0.024318326359833,227622.52076653,0,0.024318326359833,0
0.024451213389121,226078.64667934,0,0.024451213389121,0
0.02458410041841,224523.63839988,0,0.02458410041841,0
0.024716987447699,222956.27923732,0,0.024716987447699,0
0.024849874476987,221375.62518692,0,0.024849874476987,0
0.024982761506276,219780.92111128,0,0.024982761506276,0
0.025115648535565,218171.54144264,0,0.025115648535565,0
0.025248535564854,216546.94816466,0,0.025248535564854,0
0.025381422594142,214906.66096497,0,0.025381422594142,0
0.025514309623431,213250.23595342,0,0.025514309623431,0
0.02564719665272,211577.25040222,0,0.02564719665272,0
0.025780083682008,209887.2917118,0,0.025780083682008,0
0.025912970711297,208179.94933397,0,0.025912970711297,0
0.026045857740586,206454.80875543,0,0.026045857740586,0
0.026178744769874,204711.44690681,0,0.026178744769874,0
0.026311631799163,202949.42854653,0,0.026311631799163,0
0.026444518828452,201168.30329861,0,0.026444518828452,0
0.026577405857741,199367.60311453,0,0.026577405857741,0
0.026710292887029,197546.83999272,0,0.026710292887029,0
0.026843179916318,195705.5038337,0,0.026843179916318,0
0.026976066945607,193843.06033952,0,0.026976066945607,0
0.027108953974895,191958.94888665,0,0.027108953974895,0
0.027241841004184,190052.58031537,0,0.027241841004184,0
0.027374728033473,188123.3345871,0,0.027374728033473,0
0.027507615062762,186170.558266,0,0.027507615062762,0
0.02764050209205,184193.56178263,0,0.02764050209205,0
0.027773389121339,182191.61643717,0,0.027773389121339,0
0.027906276150628,180163.95109677,0,0.027906276150628,0
0.028039163179916,178109.7485371,0,0.028039163179916,0
0.028172050209205,176028.14137178,0,0.028172050209205,0
0.028304937238494,173918.20750476,0,0.028304937238494,0
0.028437824267782,171778.96502992,0,0.028437824267782,0
0.028570711297071,169609.36648888,0,0.028570711297071,0
0.02870359832636,167408.29238112,0,0.02870359832636,0
0.028836485355649,165174.54380031,0,0.028836485355649,0
0.028969372384937,162906.83404511,0,0.028969372384937,0
0.029102259414226,160603.77902184,0,0.029102259414226,0
0.029235146443515,158263.88621788,0,0.029235146443515,0
0.029368033472803,155885.5419771,0,0.029368033472803,0
0.029500920502092,153466.9967501,0,0.029500920502092,0
0.029633807531381,151006.34791965,0,0.029633807531381,0
0.029766694560669,148501.51971192,0,0.029766694560669,0
0.029899581589958,145950.23959441,0,0.029899581589958,0
0.030032468619247,143350.01042527,0,0.030032468619247,0
0.030165355648536,140698.07745337,0,0.030165355648536,0
0.030298242677824,137991.38906651,0,0.030298242677824,0
0.030431129707113,135226.54994193,0,0.030431129707113,0
0.030564016736402,132399.76496436,0,0.030564016736402,0
0.03069690376569,129506.77193833,0,0.03069690376569,0
0.030829790794979,126542.76073708,0,0.030829790794979,0
0.030962677824268,123502.27610996,0,0.030962677824268,0
0.031095564853556,120379.10094148,0,0.031095564853556,0
0.031228451882845,117166.1163726,0,0.031228451882845,0
0.031361338912134,113855.13495914,0,0.031361338912134,0
0.031494225941423,110436.70313021,0,0.031494225941423,0
0.031627112970711,106899.86992204,0,0.031627112970711,0
0.03176,103231.92080145,0,0.03176,0
