id,pressure,x,y,z
0,245055.99264563,0,0,0
0.0001328870292887,245049.1032881,0,0.0001328870292887,0
0.00026577405857741,245041.63778652,0,0.00026577405857741,0
0.00039866108786611,245033.1865773,0,0.00039866108786611,0
0.00053154811715481,245023.45849929,0,0.00053154811715481,0
0.00066443514644351,245012.24654691,0,0.00066443514644351,0
0.00079732217573222,244999.40352645,0,0.00079732217573222,0
0.00093020920502092,244984.82475176,0,0.00093020920502092,0
0.0010630962343096,244968.43574391,0,0.0010630962343096,0
0.0011959832635983,244950.18348786,0,0.0011959832635983,0
0.001328870292887,244930.03021738,0,0.001328870292887,0
0.0014617573221757,244907.94899727,0,0.0014617573221757,0
0.0015946443514644,244883.92058309,0,0.0015946443514644,0
0.0017275313807531,244857.93118879,0,0.0017275313807531,0
0.0018604184100418,244829.97089989,0,0.0018604184100418,0
0.0019933054393305,244800.03254516,0,0.0019933054393305,0
0.0021261924686192,244768.11089442,0,0.0021261924686192,0
0.0022590794979079,244734.20208774,0,0.0022590794979079,0
0.0023919665271967,244698.30322907,0,0.0023919665271967,0
0.0025248535564854,244660.4120965,0,0.0025248535564854,0
0.0026577405857741,244620.52693491,0,0.0026577405857741,0
0.0027906276150628,244578.6463068,0,0.0027906276150628,0
0.0029235146443515,244534.76898355,0,0.0029235146443515,0
0.0030564016736402,244488.89386457,0,0.0030564016736402,0
0.0031892887029289,244441.01991457,0,0.0031892887029289,0
0.0033221757322176,244391.1461118,0,0.0033221757322176,0
0.0034550627615063,244339.27140095,0,0.0034550627615063,0
0.003587949790795,244285.39464545,0,0.003587949790795,0
0.0037208368200837,244229.51457332,0,0.0037208368200837,0
0.0038537238493724,244171.62971033,0,0.0038537238493724,0
0.0039866108786611,244111.73829262,0,0.0039866108786611,0
0.0041194979079498,244049.83814848,0,0.0041194979079498,0
0.0042523849372385,243985.92653543,0,0.0042523849372385,0
0.0043852719665272,243919.99991341,0,0.0043852719665272,0
0.0045181589958159,243852.0536275,0,0.0045181589958159,0
0.0046510460251046,243782.08146281,0,0.0046510460251046,0
0.0047839330543933,243710.07501929,0,0.0047839330543933,0
0.004916820083682,243636.02283291,0,0.004916820083682,0
0.0050497071129707,243559.90913999,0,0.0050497071129707,0
0.0051825941422594,243481.71213945,0,0.0051825941422594,0
0.0053154811715481,243401.40154863,0,0.0053154811715481,0
0.0054483682008368,243318.93516551,0,0.0054483682008368,0
0.0055812552301255,243234.25403335,0,0.0055812552301255,0
0.0057141422594142,243147.27563918,0,0.0057141422594142,0
0.0058470292887029,243057.8843471,0,0.0058470292887029,0
0.0059799163179916,242965.91794182,0,0.0059799163179916,0
0.0061128033472803,242871.14870103,0,0.0061128033472803,0
0.006245690376569,242773.25677226,0,0.006245690376569,0
0.0063785774058577,242671.79272541,0,0.0063785774058577,0
0.0065114644351464,242566.12488016,0,0.0065114644351464,0
0.0066443514644351,242455.36521855,0,0.0066443514644351,0
0.0067772384937238,242338.26517645,0,0.0067772384937238,0
0.0069101255230126,242213.06906836,0,0.0069101255230126,0
0.0070430125523013,242077.30792175,0,0.0070430125523013,0
0.00717589958159,241927.50949558,0,0.00717589958159,0
0.0073087866108787,241758.79040929,0,0.0073087866108787,0
0.0074416736401674,241564.28245759,0,0.0074416736401674,0
0.0075745606694561,241334.32570482,0,0.0075745606694561,0
0.0077074476987448,241055.33355222,0,0.0077074476987448,0
0.0078403347280335,240708.19643401,0,0.0078403347280335,0
0.0079732217573222,240266.03661153,0,0.0079732217573222,0
0.0081061087866109,239708.10121236,0,0.0081061087866109,0
0.0082389958158996,239057.48031295,0,0.0082389958158996,0
0.0083718828451883,238331.79345627,0,0.0083718828451883,0
0.008504769874477,237544.47659746,0,0.008504769874477,0
0.0086376569037657,236705.76609968,0,0.0086376569037657,0
0.0087705439330544,235823.45105947,0,0.0087705439330544,0
0.0089034309623431,234903.44847714,0,0.0089034309623431,0
0.0090363179916318,233950.24296092,0,0.0090363179916318,0
0.0091692050209205,232967.22284498,0,0.0091692050209205,0
0.0093020920502092,231956.93710001,0,0.0093020920502092,0
0.0094349790794979,230921.29167903,0,0.0094349790794979,0
0.0095678661087866,229861.69955409,0,0.0095678661087866,0
0.0097007531380753,228779.19534462,0,0.0097007531380753,0
0.009833640167364,227674.52287312,0,0.009833640167364,0
0.0099665271966527,226548.20202182,0,0.0099665271966527,0
0.010099414225941,225400.57976421,0,0.010099414225941,0
0.01023230125523,224231.86909836,0,0.01023230125523,0
0.010365188284519,223042.17873262,0,0.010365188284519,0
0.010498075313808,221831.53570405,0,0.010498075313808,0
0.010630962343096,220599.9025984,0,0.010630962343096,0
0.010763849372385,219347.19064995,0,0.010763849372385,0
0.010896736401674,218073.26970143,0,0.010896736401674,0
0.011029623430962,216777.97577823,0,0.011029623430962,0
0.011162510460251,215461.11685897,0,0.011162510460251,0
0.01129539748954,214122.47729557,0,0.01129539748954,0
0.011428284518828,212761.82123956,0,0.011428284518828,0
0.011561171548117,211378.89536111,0,0.011561171548117,0
0.011694058577406,209973.4310982,0,0.011694058577406,0
0.011826945606695,208545.1466409,0,0.011826945606695,0
0.011959832635983,207093.74883933,0,0.011959832635983,0
0.012092719665272,205618.93521999,0,0.012092719665272,0
0.012225606694561,204120.3963055,0,0.012225606694561,0
0.012358493723849,202597.81845701,0,0.012358493723849,0
0.012491380753138,201050.88749788,0,0.012491380753138,0
0.012624267782427,199479.29343587,0,0.012624267782427,0
0.012757154811715,197882.73668114,0,0.012757154811715,0
0.012890041841004,196260.93626604,0,0.012890041841004,0
0.013022928870293,194613.64071612,0,0.013022928870293,0
0.013155815899582,192940.64241069,0,0.013155815899582,0
0.01328870292887,191241.79651804,0,0.01328870292887,0
0.013421589958159,189517.04591216,0,0.013421589958159,0
0.013554476987448,187766.45389604,0,0.013554476987448,0
0.013687364016736,185990.24710019,0,0.013687364016736,0
0.013820251046025,184188.87163041,0,0.013820251046025,0
0.013953138075314,182363.06645328,0,0.013953138075314,0
0.014086025104603,180513.95919403,0,0.014086025104603,0
0.014218912133891,178643.19105754,0,0.014218912133891,0
0.01435179916318,176753.07957297,0,0.01435179916318,0
0.014484686192469,174846.8304389,0,0.014484686192469,0
0.014617573221757,172928.81307933,0,0.014617573221757,0
0.014750460251046,171004.9188344,0,0.014750460251046,0
0.014883347280335,169083.02628765,0,0.014883347280335,0
0.015016234309623,167173.6054445,0,0.015016234309623,0
0.015149121338912,165290.5018003,0,0.015149121338912,0
0.015282008368201,163451.95338807,0,0.015282008368201,0
0.01541489539749,161681.90947424,0,0.01541489539749,0
0.015547782426778,160011.73971183,0,0.015547782426778,0
0.015680669456067,158482.44861426,0,0.015680669456067,0
0.015813556485356,157147.54394489,0,0.015813556485356,0
0.015946443514644,156076.75132249,0,0.015946443514644,0
0.016079330543933,155223.06289984,0,0.016079330543933,0
0.016212217573222,154522.64226308,0,0.016212217573222,0
0.01634510460251,153930.24637143,0,0.01634510460251,0
0.016477991631799,153413.8100368,0,0.016477991631799,0
0.016610878661088,152950.60747577,0,0.016610878661088,0
0.016743765690377,152524.53178258,0,0.016743765690377,0
0.016876652719665,152124.16678998,0,0.016876652719665,0
0.017009539748954,151741.42055604,0,0.017009539748954,0
0.017142426778243,151370.5569056,0,0.017142426778243,0
0.017275313807531,151007.50908759,0,0.017275313807531,0
0.01740820083682,150649.39337353,0,0.01740820083682,0
0.017541087866109,150294.16435634,0,0.017541087866109,0
0.017673974895397,149940.37067147,0,0.017673974895397,0
0.017806861924686,149586.98188627,0,0.017806861924686,0
0.017939748953975,149233.26582458,0,0.017939748953975,0
0.018072635983264,148878.70163336,0,0.018072635983264,0
0.018205523012552,148522.91817816,0,0.018205523012552,0
0.018338410041841,148165.65038811,0,0.018338410041841,0
0.01847129707113,147806.70832066,0,0.01847129707113,0
0.018604184100418,147445.95524005,0,0.018604184100418,0
0.018737071129707,147083.29208324,0,0.018737071129707,0
0.018869958158996,146718.64645209,0,0.018869958158996,0
0.019002845188285,146351.96481297,0,0.019002845188285,0
0.019135732217573,145983.20696926,0,0.019135732217573,0
0.019268619246862,145612.34214447,0,0.019268619246862,0
0.019401506276151,145239.34620675,0,0.019401506276151,0
0.019534393305439,144864.19970234,0,0.019534393305439,0
0.019667280334728,144486.88646244,0,0.019667280334728,0
0.019800167364017,144107.39261679,0,0.019800167364017,0
0.019933054393305,143725.70589582,0,0.019933054393305,0
0.020065941422594,143341.81513806,0,0.020065941422594,0
0.020198828451883,142955.70994387,0,0.020198828451883,0
0.020331715481172,142567.38043431,0,0.020331715481172,0
0.02046460251046,142176.81708643,0,0.02046460251046,0
0.020597489539749,141784.01062544,0,0.020597489539749,0
0.020730376569038,141388.9519611,0,0.020730376569038,0
0.020863263598326,140991.63216096,0,0.020863263598326,0
0.020996150627615,140592.04245733,0,0.020996150627615,0
0.021129037656904,140190.17428921,0,0.021129037656904,0
0.021261924686192,139786.01938408,0,0.021261924686192,0
0.021394811715481,139379.56988981,0,0.021394811715481,0
0.02152769874477,138970.81857221,0,0.02152769874477,0
0.021660585774059,138559.75910203,0,0.021660585774059,0
0.021793472803347,138146.38646553,0,0.021793472803347,0
0.021926359832636,137730.69754744,0,0.021926359832636,0
0.022059246861925,137312.69195526,0,0.022059246861925,0
0.022192133891213,136892.37318274,0,0.022192133891213,0
0.022325020920502,136469.75024995,0,0.022325020920502,0
0.022457907949791,136044.84001392,0,0.022457907949791,0
0.022590794979079,135617.67042258,0,0.022590794979079,0
0.022723682008368,135188.28509646,0,0.022723682008368,0
0.022856569037657,134756.74977851,0,0.022856569037657,0
0.022989456066946,134323.16141342,0,0.022989456066946,0
0.023122343096234,133887.66092709,0,0.023122343096234,0
0.023255230125523,133450.45121366,0,0.023255230125523,0
0.023388117154812,133011.8224511,0,0.023388117154812,0
0.0235210041841,132572.18773005,0,0.0235210041841,0
0.023653891213389,132132.13319623,0,0.023653891213389,0
0.023786778242678,131692.48861703,0,0.023786778242678,0
0.023919665271967,131254.42668844,0,0.023919665271967,0
0.024052552301255,130817.93352081,0,0.024052552301255,0
0.024185439330544,130381.86644882,0,0.024185439330544,0
0.024318326359833,129945.41506817,0,0.024318326359833,0
0.024451213389121,129508.00361047,0,0.024451213389121,0
0.02458410041841,129069.22198276,0,0.02458410041841,0
0.024716987447699,128628.77705599,0,0.024716987447699,0
0.024849874476987,128186.45825706,0,0.024849874476987,0
0.024982761506276,127742.11326413,0,0.024982761506276,0
0.025115648535565,127295.63083857,0,0.025115648535565,0
0.025248535564854,126846.92869767,0,0.025248535564854,0
0.025381422594142,126395.94494787,0,0.025381422594142,0
0.025514309623431,125942.63203268,0,0.025514309623431,0
0.02564719665272,125486.95245691,0,0.02564719665272,0
0.025780083682008,125028.87576527,0,0.025780083682008,0
0.025912970711297,124568.37640694,0,0.025912970711297,0
0.026045857740586,124105.4322259,0,0.026045857740586,0
0.026178744769874,123640.02339304,0,0.026178744769874,0
0.026311631799163,123172.13165033,0,0.026311631799163,0
0.026444518828452,122701.73977522,0,0.026444518828452,0
0.026577405857741,122228.83120064,0,0.026577405857741,0
0.026710292887029,121753.38974467,0,0.026710292887029,0
0.026843179916318,121275.39941774,0,0.026843179916318,0
0.026976066945607,120794.84428436,0,0.026976066945607,0
0.027108953974895,120311.70836344,0,0.027108953974895,0
0.027241841004184,119825.97555559,0,0.027241841004184,0
0.027374728033473,119337.62958951,0,0.027374728033473,0
0.027507615062762,118846.65398163,0,0.027507615062762,0
0.02764050209205,118353.03200506,0,0.02764050209205,0
0.027773389121339,117856.74666489,0,0.027773389121339,0
0.027906276150628,117357.7806777,0,0.027906276150628,0
0.028039163179916,116856.11645391,0,0.028039163179916,0
0.028172050209205,116351.73608163,0,0.028172050209205,0
0.028304937238494,115844.62131126,0,0.028304937238494,0
0.028437824267782,115334.75353984,0,0.028437824267782,0
0.028570711297071,114822.11379455,0,0.028570711297071,0
0.02870359832636,114306.68271436,0,0.02870359832636,0
0.028836485355649,113788.44052893,0,0.028836485355649,0
0.028969372384937,113267.36703326,0,0.028969372384937,0
0.029102259414226,112743.44155658,0,0.029102259414226,0
0.029235146443515,112216.64292278,0,0.029235146443515,0
0.029368033472803,111686.94939919,0,0.029368033472803,0
0.029500920502092,111154.33862898,0,0.029500920502092,0
0.029633807531381,110618.78754038,0,0.029633807531381,0
0.029766694560669,110080.27222373,0,0.029766694560669,0
0.029899581589958,109538.76776287,0,0.029899581589958,0
0.030032468619247,108994.24800269,0,0.030032468619247,0
0.030165355648536,108446.68522665,0,0.030165355648536,0
0.030298242677824,107896.04970758,0,0.030298242677824,0
0.030431129707113,107342.30908009,0,0.030431129707113,0
0.030564016736402,106785.42746164,0,0.030564016736402,0
0.03069690376569,106225.36421945,0,0.03069690376569,0
0.030829790794979,105662.07223844,0,0.030829790794979,0
0.030962677824268,105095.4954859,0,0.030962677824268,0
0.031095564853556,104525.5655851,0,0.031095564853556,0
0.031228451882845,103952.19699186,0,0.031228451882845,0
0.031361338912134,103375.28020242,0,0.031361338912134,0
0.031494225941423,102794.67218609,0,0.031494225941423,0
0.031627112970711,102210.1829067,0,0.031627112970711,0
0.03176,101621.5563312,0,0.03176,0
