id,pressure,x,y,z
0,1350711.5501527,0,0,0
0.0001328870292887,1350667.3617989,0,0.0001328870292887,0
0.00026577405857741,1350619.4779666,0,0.00026577405857741,0
0.00039866108786611,1350565.2715476,0,0.00039866108786611,0
0.00053154811715481,1350502.8747964,0,0.00053154811715481,0
0.00066443514644351,1350430.9596732,0,0.00066443514644351,0
0.00079732217573222,1350348.5817032,0,0.00079732217573222,0
0.00093020920502092,1350255.0689865,0,0.00093020920502092,0
0.0010630962343096,1350149.9433032,0,0.0010630962343096,0
0.0011959832635983,1350032.8640316,0,0.0011959832635983,0
0.001328870292887,1349903.5882848,0,0.001328870292887,0
0.0014617573221757,1349761.9425739,0,0.0014617573221757,0
0.0015946443514644,1349607.8026652,0,0.0015946443514644,0
0.0017275313807531,1349441.0792615,0,0.0017275313807531,0
0.0018604184100418,1349261.7078238,0,0.0018604184100418,0
0.0019933054393305,1349069.6413338,0,0.0019933054393305,0
0.0021261924686192,1348864.8451478,0,0.0021261924686192,0
0.0022590794979079,1348647.2933355,0,0.0022590794979079,0
0.0023919665271967,1348416.9660734,0,0.0023919665271967,0
0.0025248535564854,1348173.8477855,0,0.0025248535564854,0
0.0026577405857741,1347917.9258133,0,0.0026577405857741,0
0.0027906276150628,1347649.1894583,0,0.0027906276150628,0
0.0029235146443515,1347367.6292841,0,0.0029235146443515,0
0.0030564016736402,1347073.2365971,0,0.0030564016736402,0
0.0031892887029289,1346766.0030433,0,0.0031892887029289,0
0.0033221757322176,1346445.920275,0,0.0033221757322176,0
0.0034550627615063,1346112.9796478,0,0.0034550627615063,0
0.003587949790795,1345767.1719122,0,0.003587949790795,0
0.0037208368200837,1345408.486864,0,0.0037208368200837,0
0.0038537238493724,1345036.9129127,0,0.0038537238493724,0
0.0039866108786611,1344652.4365158,0,0.0039866108786611,0
0.0041194979079498,1344255.0414148,0,0.0041194979079498,0
0.0042523849372385,1343844.7075818,0,0.0042523849372385,0
0.0043852719665272,1343421.4097525,0,0.0043852719665272,0
0.0045181589958159,1342985.1153753,0,0.0045181589958159,0
0.0046510460251046,1342535.7817335,0,0.0046510460251046,0
0.0047839330543933,1342073.3519036,0,0.0047839330543933,0
0.004916820083682,1341597.7490744,0,0.004916820083682,0
0.0050497071129707,1341108.8685602,0,0.0050497071129707,0
0.0051825941422594,1340606.5665679,0,0.0051825941422594,0
0.0053154811715481,1340090.6443999,0,0.0053154811715481,0
0.0054483682008368,1339560.826236,0,0.0054483682008368,0
0.0055812552301255,1339016.7278824,0,0.0055812552301255,0
0.0057141422594142,1338457.8128174,0,0.0057141422594142,0
0.0058470292887029,1337883.3303678,0,0.0058470292887029,0
0.0059799163179916,1337292.2287521,0,0.0059799163179916,0
0.0061128033472803,1336683.032773,0,0.0061128033472803,0
0.006245690376569,1336053.6717886,0,0.006245690376569,0
0.0063785774058577,1335401.2377495,0,0.0063785774058577,0
0.0065114644351464,1334721.6448736,0,0.0065114644351464,0
0.0066443514644351,1334009.1509739,0,0.0066443514644351,0
0.0067772384937238,1333255.6842021,0,0.0067772384937238,0
0.0069101255230126,1332449.896111,0,0.0069101255230126,0
0.0070430125523013,1331575.8297901,0,0.0070430125523013,0
0.00717589958159,1330611.0466108,0,0.00717589958159,0
0.0073087866108787,1329523.9915208,0,0.0073087866108787,0
0.0074416736401674,1328270.2873878,0,0.0074416736401674,0
0.0075745606694561,1326787.5230983,0,0.0075745606694561,0
0.0077074476987448,1324987.9231982,0,0.0077074476987448,0
0.0078403347280335,1322748.0380514,0,0.0078403347280335,0
0.0079732217573222,1319894.2437059,0,0.0079732217573222,0
0.0081061087866109,1316292.3060201,0,0.0081061087866109,0
0.0082389958158996,1312090.4637634,0,0.0082389958158996,0
0.0083718828451883,1307401.7066177,0,0.0083718828451883,0
0.008504769874477,1302312.0694387,0,0.008504769874477,0
0.0086376569037657,1296886.9722766,0,0.0086376569037657,0
0.0087705439330544,1291176.0662482,0,0.0087705439330544,0
0.0089034309623431,1285216.9370884,0,0.0089034309623431,0
0.0090363179916318,1279037.9353682,0,0.0090363179916318,0
0.0091692050209205,1272660.339025,0,0.0091692050209205,0
0.0093020920502092,1266100.0054325,0,0.0093020920502092,0
0.0094349790794979,1259368.6332083,0,0.0094349790794979,0
0.0095678661087866,1252474.7256537,0,0.0095678661087866,0
0.0097007531380753,1245424.3260722,0,0.0097007531380753,0
0.009833640167364,1238221.5786705,0,0.009833640167364,0
0.0099665271966527,1230869.156088,0,0.0099665271966527,0
0.010099414225941,1223368.5849361,0,0.010099414225941,0
0.01023230125523,1215720.493328,0,0.01023230125523,0
0.010365188284519,1207924.7987372,0,0.010365188284519,0
0.010498075313808,1199980.8501983,0,0.010498075313808,0
0.010630962343096,1191887.535573,0,0.010630962343096,0
0.010763849372385,1183643.3620843,0,0.010763849372385,0
0.010896736401674,1175246.5164067,0,0.010896736401674,0
0.011029623430962,1166694.9091438,0,0.011029623430962,0
0.011162510460251,1157986.2074203,0,0.011162510460251,0
0.01129539748954,1149117.8584891,0,0.01129539748954,0
0.011428284518828,1140087.1066385,0,0.011428284518828,0
0.011561171548117,1130891.0052426,0,0.011561171548117,0
0.011694058577406,1121526.4254929,0,0.011694058577406,0
0.011826945606695,1111990.063159,0,0.011826945606695,0
0.011959832635983,1102278.4446405,0,0.011959832635983,0
0.012092719665272,1092387.9335842,0,0.012092719665272,0
0.012225606694561,1082314.739446,0,0.012225606694561,0
0.012358493723849,1072054.9295926,0,0.012358493723849,0
0.012491380753138,1061604.4468684,0,0.012491380753138,0
0.012624267782427,1050959.1350323,0,0.012624267782427,0
0.012757154811715,1040114.7751202,0,0.012757154811715,0
0.012890041841004,1029067.1366656,0,0.012890041841004,0
0.013022928870293,1017812.0488688,0,0.013022928870293,0
0.013155815899582,1006345.4983229,0,0.013155815899582,0
0.01328870292887,994663.76189214,0,0.01328870292887,0
0.013421589958159,982763.58591856,0,0.013421589958159,0
0.013554476987448,970642.42629101,0,0.013554476987448,0
0.013687364016736,958298.76826018,0,0.013687364016736,0
0.013820251046025,945732.55051882,0,0.013820251046025,0
0.013953138075314,932945.72535244,0,0.013953138075314,0
0.014086025104603,919942.99607946,0,0.014086025104603,0
0.014218912133891,906732.78514578,0,0.014218912133891,0
0.01435179916318,893328.50189381,0,0.01435179916318,0
0.014484686192469,879750.19918092,0,0.014484686192469,0
0.014617573221757,866026.73393834,0,0.014617573221757,0
0.014750460251046,852198.58004771,0,0.014750460251046,0
0.014883347280335,838321.4846103,0,0.014883347280335,0
0.015016234309623,824471.21339195,0,0.015016234309623,0
0.015149121338912,810749.70124456,0,0.015149121338912,0
0.015282008368201,797293.01283636,0,0.015282008368201,0
0.01541489539749,784281.63344129,0,0.01541489539749,0
0.015547782426778,771953.75575933,0,0.015547782426778,0
0.015680669456067,760622.41576936,0,0.015680669456067,0
0.015813556485356,750697.57036178,0,0.015813556485356,0
0.015946443514644,742714.51791938,0,0.015946443514644,0
0.016079330543933,736329.29882879,0,0.016079330543933,0
0.016212217573222,731069.500001,0,0.016212217573222,0
0.01634510460251,726600.48252121,0,0.01634510460251,0
0.016477991631799,722685.19532423,0,0.016477991631799,0
0.016610878661088,719155.70596036,0,0.016610878661088,0
0.016743765690377,715893.03396312,0,0.016743765690377,0
0.016876652719665,712812.86639434,0,0.016876652719665,0
0.017009539748954,709855.44037745,0,0.017009539748954,0
0.017142426778243,706978.37734813,0,0.017142426778243,0
0.017275313807531,704151.608053,0,0.017275313807531,0
0.01740820083682,701353.77838588,0,0.01740820083682,0
0.017541087866109,698569.70402959,0,0.017541087866109,0
0.017673974895397,695788.5678888,0,0.017673974895397,0
0.017806861924686,693002.64356917,0,0.017806861924686,0
0.017939748953975,690206.3913917,0,0.017939748953975,0
0.018072635983264,687395.81822114,0,0.018072635983264,0
0.018205523012552,684568.02411063,0,0.018205523012552,0
0.018338410041841,681720.8812336,0,0.018338410041841,0
0.01847129707113,678852.80648685,0,0.01847129707113,0
0.018604184100418,675962.60041861,0,0.018604184100418,0
0.018737071129707,673049.33311671,0,0.018737071129707,0
0.018869958158996,670112.26334421,0,0.018869958158996,0
0.019002845188285,667150.7812123,0,0.019002845188285,0
0.019135732217573,664164.36751511,0,0.019135732217573,0
0.019268619246862,661152.56485798,0,0.019268619246862,0
0.019401506276151,658114.95713248,0,0.019401506276151,0
0.019534393305439,655051.15489782,0,0.019534393305439,0
0.019667280334728,651960.78494141,0,0.019667280334728,0
0.019800167364017,648843.48279651,0,0.019800167364017,0
0.019933054393305,645698.88735267,0,0.019933054393305,0
0.020065941422594,642526.63694887,0,0.020065941422594,0
0.020198828451883,639326.36651996,0,0.020198828451883,0
0.020331715481172,636097.70549579,0,0.020331715481172,0
0.02046460251046,632840.27624556,0,0.02046460251046,0
0.020597489539749,629553.69292784,0,0.020597489539749,0
0.020730376569038,626237.56065787,0,0.020730376569038,0
0.020863263598326,622891.47494474,0,0.020863263598326,0
0.020996150627615,619515.02138576,0,0.020996150627615,0
0.021129037656904,616107.77563923,0,0.021129037656904,0
0.021261924686192,612669.30373277,0,0.021261924686192,0
0.021394811715481,609199.16280721,0,0.021394811715481,0
0.02152769874477,605696.9024509,0,0.02152769874477,0
0.021660585774059,602162.06685244,0,0.021660585774059,0
0.021793472803347,598594.19809934,0,0.021793472803347,0
0.021926359832636,594992.84108909,0,0.021926359832636,0
0.022059246861925,591357.55071171,0,0.022059246861925,0
0.022192133891213,587687.90223378,0,0.022192133891213,0
0.022325020920502,583983.50619259,0,0.022325020920502,0
0.022457907949791,580244.02964175,0,0.022457907949791,0
0.022590794979079,576469.22633647,0,0.022590794979079,0
0.022723682008368,572658.97949601,0,0.022723682008368,0
0.022856569037657,568813.3622541,0,0.022856569037657,0
0.022989456066946,564932.72297689,0,0.022989456066946,0
0.023122343096234,561017.80553234,0,0.023122343096234,0
0.023255230125523,557069.91867328,0,0.023255230125523,0
0.023388117154812,553091.17442104,0,0.023388117154812,0
0.0235210041841,549084.82337266,0,0.0235210041841,0
0.023653891213389,545055.72613435,0,0.023653891213389,0
0.023786778242678,541011.01591464,0,0.023786778242678,0
0.023919665271967,536961.02951802,0,0.023919665271967,0
0.024052552301255,532905.15542518,0,0.024052552301255,0
0.024185439330544,528832.30675113,0,0.024185439330544,0
0.024318326359833,524734.38987694,0,0.024318326359833,0
0.024451213389121,520605.40898314,0,0.024451213389121,0
0.02458410041841,516440.83394702,0,0.02458410041841,0
0.024716987447699,512237.15389558,0,0.024716987447699,0
0.024849874476987,507991.56159183,0,0.024849874476987,0
0.024982761506276,503701.72998723,0,0.024982761506276,0
0.025115648535565,499365.65366576,0,0.025115648535565,0
0.025248535564854,494981.53593847,0,0.025248535564854,0
0.025381422594142,490547.70801176,0,0.025381422594142,0
0.025514309623431,486062.57064441,0,0.025514309623431,0
0.02564719665272,481524.55152239,0,0.02564719665272,0
0.025780083682008,476932.07356117,0,0.025780083682008,0
0.025912970711297,472283.53074016,0,0.025912970711297,0
0.026045857740586,467577.26905338,0,0.026045857740586,0
0.026178744769874,462811.57084753,0,0.026178744769874,0
0.026311631799163,457984.64129846,0,0.026311631799163,0
0.026444518828452,453094.59610915,0,0.026444518828452,0
0.026577405857741,448139.44974017,0,0.026577405857741,0
0.026710292887029,443117.10363505,0,0.026710292887029,0
0.026843179916318,438025.33399949,0,0.026843179916318,0
0.026976066945607,432861.77874807,0,0.026976066945607,0
0.027108953974895,427623.92325376,0,0.027108953974895,0
0.027241841004184,422309.08452979,0,0.027241841004184,0
0.027374728033473,416914.39344248,0,0.027374728033473,0
0.027507615062762,411436.77449683,0,0.027507615062762,0
0.02764050209205,405872.92265265,0,0.02764050209205,0
0.027773389121339,400219.27651156,0,0.027773389121339,0
0.027906276150628,394471.98705775,0,0.027906276150628,0
0.028039163179916,388626.8809263,0,0.028039163179916,0
0.028172050209205,382679.41689739,0,0.028172050209205,0
0.028304937238494,376624.63395156,0,0.028304937238494,0
0.028437824267782,370457.0887437,0,0.028437824267782,0
0.028570711297071,364170.77972313,0,0.028570711297071,0
0.02870359832636,357759.05429579,0,0.02870359832636,0
0.028836485355649,351214.49432539,0,0.028836485355649,0
0.028969372384937,344528.77381753,0,0.028969372384937,0
0.029102259414226,337692.48070863,0,0.029102259414226,0
0.029235146443515,330694.89214097,0,0.029235146443515,0
0.029368033472803,323523.68925002,0,0.029368033472803,0
0.029500920502092,316164.59306978,0,0.029500920502092,0
0.029633807531381,308600.89735524,0,0.029633807531381,0
0.029766694560669,300812.86652888,0,0.029766694560669,0
0.029899581589958,292776.95709354,0,0.029899581589958,0
0.030032468619247,284464.80814954,0,0.030032468619247,0
0.030165355648536,275841.93049188,0,0.030165355648536,0
0.030298242677824,266866.00356241,0,0.030298242677824,0
0.030431129707113,257484.66494057,0,0.030431129707113,0
0.030564016736402,247632.64834798,0,0.030564016736402,0
0.03069690376569,237228.09501288,0,0.03069690376569,0
0.030829790794979,226167.83436549,0,0.030829790794979,0
0.030962677824268,214321.41414707,0,0.030962677824268,0
0.031095564853556,201523.68004179,0,0.031095564853556,0
0.031228451882845,187565.80859903,0,0.031228451882845,0
0.031361338912134,172184.98385094,0,0.031361338912134,0
0.031494225941423,155053.58897095,0,0.031494225941423,0
0.031627112970711,135770.32854772,0,0.031627112970711,0
0.03176,113859.21734642,0,0.03176,0
