id,pressure,x,y,z
0,561606.60304404,0,0,0
0.0001328870292887,561597.51145061,0,0.0001328870292887,0
0.00026577405857741,561587.65955036,0,0.00026577405857741,0
0.00039866108786611,561576.50687212,0,0.00039866108786611,0
0.00053154811715481,561563.66920268,0,0.00053154811715481,0
0.00066443514644351,561548.87339356,0,0.00066443514644351,0
0.00079732217573222,561531.92523638,0,0.00079732217573222,0
0.00093020920502092,561512.68662775,0,0.00093020920502092,0
0.0010630962343096,561491.05933755,0,0.0010630962343096,0
0.0011959832635983,561466.97347099,0,0.0011959832635983,0
0.001328870292887,561440.37926725,0,0.001328870292887,0
0.0014617573221757,561411.24126974,0,0.0014617573221757,0
0.0015946443514644,561379.53418224,0,0.0015946443514644,0
0.0017275313807531,561345.23992338,0,0.0017275313807531,0
0.0018604184100418,561308.34553292,0,0.0018604184100418,0
0.0019933054393305,561268.8416835,0,0.0019933054393305,0
0.0021261924686192,561226.72162277,0,0.0021261924686192,0
0.0022590794979079,561181.9804215,0,0.0022590794979079,0
0.0023919665271967,561134.61443909,0,0.0023919665271967,0
0.0025248535564854,561084.62094368,0,0.0025248535564854,0
0.0026577405857741,561031.99784217,0,0.0026577405857741,0
0.0027906276150628,560976.74348831,0,0.0027906276150628,0
0.0029235146443515,560918.85654642,0,0.0029235146443515,0
0.0030564016736402,560858.33589454,0,0.0030564016736402,0
0.0031892887029289,560795.18055572,0,0.0031892887029289,0
0.0033221757322176,560729.38964942,0,0.0033221757322176,0
0.0034550627615063,560660.96235714,0,0.0034550627615063,0
0.003587949790795,560589.89789835,0,0.003587949790795,0
0.0037208368200837,560516.19551401,0,0.0037208368200837,0
0.0038537238493724,560439.85445538,0,0.0038537238493724,0
0.0039866108786611,560360.87397728,0,0.0039866108786611,0
0.0041194979079498,560279.2533346,0,0.0041194979079498,0
0.0042523849372385,560194.99178193,0,0.0042523849372385,0
0.0043852719665272,560108.08857612,0,0.0043852719665272,0
0.0045181589958159,560018.54298214,0,0.0045181589958159,0
0.0046510460251046,559926.35428296,0,0.0046510460251046,0
0.0047839330543933,559831.52179449,0,0.0047839330543933,0
0.004916820083682,559734.04488753,0,0.004916820083682,0
0.0050497071129707,559633.92301915,0,0.0050497071129707,0
0.0051825941422594,559531.15577733,0,0.0051825941422594,0
0.0053154811715481,559425.74294401,0,0.0053154811715481,0
0.0054483682008368,559317.684584,0,0.0054483682008368,0
0.0055812552301255,559206.98117029,0,0.0055812552301255,0
0.0057141422594142,559093.63376037,0,0.0057141422594142,0
0.0058470292887029,558977.64424441,0,0.0058470292887029,0
0.0059799163179916,558859.01569445,0,0.0059799163179916,0
0.0061128033472803,558737.75285559,0,0.0061128033472803,0
0.006245690376569,558613.86283712,0,0.006245690376569,0
0.0063785774058577,558487.35608467,0,0.0063785774058577,0
0.0065114644351464,558358.24774777,0,0.0065114644351464,0
0.0066443514644351,558226.55960361,0,0.0066443514644351,0
0.0067772384937238,558092.3227632,0,0.0067772384937238,0
0.0069101255230126,557955.58147805,0,0.0069101255230126,0
0.0070430125523013,557816.3984949,0,0.0070430125523013,0
0.00717589958159,557674.86258816,0,0.00717589958159,0
0.0073087866108787,557531.09915539,0,0.0073087866108787,0
0.0074416736401674,557385.28512161,0,0.0074416736401674,0
0.0075745606694561,557237.66990461,0,0.0075745606694561,0
0.0077074476987448,557088.60490573,0,0.0077074476987448,0
0.0078403347280335,556938.58499313,0,0.0078403347280335,0
0.0079732217573222,556788.30685356,0,0.0079732217573222,0
0.0081061087866109,556637.77758061,0,0.0081061087866109,0
0.0082389958158996,556486.36572619,0,0.0082389958158996,0
0.0083718828451883,556333.62413305,0,0.0083718828451883,0
0.008504769874477,556179.23602812,0,0.008504769874477,0
0.0086376569037657,556022.97688153,0,0.0086376569037657,0
0.0087705439330544,555864.6874208,0,0.0087705439330544,0
0.0089034309623431,555704.25453756,0,0.0089034309623431,0
0.0090363179916318,555541.59777866,0,0.0090363179916318,0
0.0091692050209205,555376.65978822,0,0.0091692050209205,0
0.0093020920502092,555209.39954522,0,0.0093020920502092,0
0.0094349790794979,555039.78757888,0,0.0094349790794979,0
0.0095678661087866,554867.80258342,0,0.0095678661087866,0
0.0097007531380753,554693.42902302,0,0.0097007531380753,0
0.009833640167364,554516.65543714,0,0.009833640167364,0
0.0099665271966527,554337.47324155,0,0.0099665271966527,0
0.010099414225941,554155.87587998,0,0.010099414225941,0
0.01023230125523,553971.85822388,0,0.01023230125523,0
0.010365188284519,553785.4161477,0,0.010365188284519,0
0.010498075313808,553596.54622831,0,0.010498075313808,0
0.010630962343096,553405.24553231,0,0.010630962343096,0
0.010763849372385,553211.51146548,0,0.010763849372385,0
0.010896736401674,553015.34166608,0,0.010896736401674,0
0.011029623430962,552816.73392935,0,0.011029623430962,0
0.011162510460251,552615.68615384,0,0.011162510460251,0
0.01129539748954,552412.19630324,0,0.01129539748954,0
0.011428284518828,552206.26237905,0,0.011428284518828,0
0.011561171548117,551997.88240086,0,0.011561171548117,0
0.011694058577406,551787.05439177,0,0.011694058577406,0
0.011826945606695,551573.7763673,0,0.011826945606695,0
0.011959832635983,551358.04632641,0,0.011959832635983,0
0.012092719665272,551139.86224358,0,0.012092719665272,0
0.012225606694561,550919.22206098,0,0.012225606694561,0
0.012358493723849,550696.12367985,0,0.012358493723849,0
0.012491380753138,550470.56495,0,0.012491380753138,0
0.012624267782427,550242.54365625,0,0.012624267782427,0
0.012757154811715,550012.05750012,0,0.012757154811715,0
0.012890041841004,549779.10407463,0,0.012890041841004,0
0.013022928870293,549543.68082917,0,0.013022928870293,0
0.013155815899582,549305.78502018,0,0.013155815899582,0
0.01328870292887,549065.41364175,0,0.01328870292887,0
0.013421589958159,548822.56332783,0,0.013421589958159,0
0.013554476987448,548577.23021411,0,0.013554476987448,0
0.013687364016736,548329.40974308,0,0.013687364016736,0
0.013820251046025,548079.09638872,0,0.013820251046025,0
0.013953138075314,547826.28326756,0,0.013953138075314,0
0.014086025104603,547570.9615893,0,0.014086025104603,0
0.014218912133891,547313.11988062,0,0.014218912133891,0
0.01435179916318,547052.74288862,0,0.01435179916318,0
0.014484686192469,546789.81003162,0,0.014484686192469,0
0.014617573221757,546524.29321033,0,0.014617573221757,0
0.014750460251046,546256.15371545,0,0.014750460251046,0
0.014883347280335,545985.33785848,0,0.014883347280335,0
0.015016234309623,545711.77079881,0,0.015016234309623,0
0.015149121338912,545435.34782226,0,0.015149121338912,0
0.015282008368201,545155.92201883,0,0.015282008368201,0
0.01541489539749,544873.28687327,0,0.01541489539749,0
0.015547782426778,544587.15166807,0,0.015547782426778,0
0.015680669456067,544297.10673152,0,0.015680669456067,0
0.015813556485356,544002.57433846,0,0.015813556485356,0
0.015946443514644,543702.73934127,0,0.015946443514644,0
0.016079330543933,543397.55261973,0,0.016079330543933,0
0.016212217573222,543087.78236181,0,0.016212217573222,0
0.01634510460251,542773.97247436,0,0.01634510460251,0
0.016477991631799,542456.5077691,0,0.016477991631799,0
0.016610878661088,542135.66020019,0,0.016610878661088,0
0.016743765690377,541811.62166086,0,0.016743765690377,0
0.016876652719665,541484.52724617,0,0.016876652719665,0
0.017009539748954,541154.47175326,0,0.017009539748954,0
0.017142426778243,540821.52138481,0,0.017142426778243,0
0.017275313807531,540485.72205005,0,0.017275313807531,0
0.01740820083682,540147.10525241,0,0.01740820083682,0
0.017541087866109,539805.69226514,0,0.017541087866109,0
0.017673974895397,539461.49709251,0,0.017673974895397,0
0.017806861924686,539114.52856949,0,0.017806861924686,0
0.017939748953975,538764.79184996,0,0.017939748953975,0
0.018072635983264,538412.28946094,0,0.018072635983264,0
0.018205523012552,538057.02204847,0,0.018205523012552,0
0.018338410041841,537698.98890394,0,0.018338410041841,0
0.01847129707113,537338.18833378,0,0.01847129707113,0
0.018604184100418,536974.61791646,0,0.018604184100418,0
0.018737071129707,536608.27467761,0,0.018737071129707,0
0.018869958158996,536239.15520399,0,0.018869958158996,0
0.019002845188285,535867.25571013,0,0.019002845188285,0
0.019135732217573,535492.57206549,0,0.019135732217573,0
0.019268619246862,535115.09978553,0,0.019268619246862,0
0.019401506276151,534734.83398558,0,0.019401506276151,0
0.019534393305439,534351.76929225,0,0.019534393305439,0
0.019667280334728,533965.89970176,0,0.019667280334728,0
0.019800167364017,533577.21836853,0,0.019800167364017,0
0.019933054393305,533185.71729893,0,0.019933054393305,0
0.020065941422594,532791.38691393,0,0.020065941422594,0
0.020198828451883,532394.21542879,0,0.020198828451883,0
0.020331715481172,531994.18797609,0,0.020331715481172,0
0.02046460251046,531591.28536833,0,0.02046460251046,0
0.020597489539749,531185.48235307,0,0.020597489539749,0
0.020730376569038,530776.74515359,0,0.020730376569038,0
0.020863263598326,530365.02800344,0,0.020863263598326,0
0.020996150627615,529950.26826353,0,0.020996150627615,0
0.021129037656904,529532.37954232,0,0.021129037656904,0
0.021261924686192,529111.24200291,0,0.021261924686192,0
0.021394811715481,528686.6887067,0,0.021394811715481,0
0.02152769874477,528258.48637325,0,0.02152769874477,0
0.021660585774059,527826.30827331,0,0.021660585774059,0
0.021793472803347,527389.69603842,0,0.021793472803347,0
0.021926359832636,526948.00585574,0,0.021926359832636,0
0.022059246861925,526500.33266358,0,0.022059246861925,0
0.022192133891213,526045.40335333,0,0.022192133891213,0
0.022325020920502,525581.42630583,0,0.022325020920502,0
0.022457907949791,525105.87940953,0,0.022457907949791,0
0.022590794979079,524615.2114093,0,0.022590794979079,0
0.022723682008368,524104.42115158,0,0.022723682008368,0
0.022856569037657,523566.46480585,0,0.022856569037657,0
0.022989456066946,522991.42073328,0,0.022989456066946,0
0.023122343096234,522365.31292258,0,0.023122343096234,0
0.023255230125523,521668.4534075,0,0.023255230125523,0
0.023388117154812,520873.10701844,0,0.023388117154812,0
0.0235210041841,519940.2014317,0,0.0235210041841,0
0.023653891213389,518814.69223281,0,0.023653891213389,0
0.023786778242678,517419.03317451,0,0.023786778242678,0
0.023919665271967,515643.97714171,0,0.023919665271967,0
0.024052552301255,513405.03714265,0,0.024052552301255,0
0.024185439330544,510801.06108361,0,0.024185439330544,0
0.024318326359833,507907.26892066,0,0.024318326359833,0
0.024451213389121,504780.83564831,0,0.024451213389121,0
0.02458410041841,501465.15244627,0,0.02458410041841,0
0.024716987447699,497993.07874482,0,0.024716987447699,0
0.024849874476987,494389.42393006,0,0.024849874476987,0
0.024982761506276,490672.84089287,0,0.024982761506276,0
0.025115648535565,486857.27049916,0,0.025115648535565,0
0.025248535564854,482953.04314395,0,0.025248535564854,0
0.025381422594142,478967.71842575,0,0.025381422594142,0
0.025514309623431,474906.72479436,0,0.025514309623431,0
0.02564719665272,470773.84637772,0,0.02564719665272,0
0.025780083682008,466571.59300699,0,0.025780083682008,0
0.025912970711297,462301.48091545,0,0.025912970711297,0
0.026045857740586,457964.24505825,0,0.026045857740586,0
0.026178744769874,453559.99901175,0,0.026178744769874,0
0.026311631799163,449088.35459467,0,0.026311631799163,0
0.026444518828452,444548.51043271,0,0.026444518828452,0
0.026577405857741,439939.31644833,0,0.026577405857741,0
0.026710292887029,435259.31953504,0,0.026710292887029,0
0.026843179916318,430506.79434628,0,0.026843179916318,0
0.026976066945607,425679.76209527,0,0.026976066945607,0
0.027108953974895,420775.9994504,0,0.027108953974895,0
0.027241841004184,415793.03896236,0,0.027241841004184,0
0.027374728033473,410728.16192883,0,0.027374728033473,0
0.027507615062762,405578.38415356,0,0.027507615062762,0
0.02764050209205,400340.43465866,0,0.02764050209205,0
0.027773389121339,395010.72703696,0,0.027773389121339,0
0.027906276150628,389585.32276134,0,0.027906276150628,0
0.028039163179916,384059.88537968,0,0.028039163179916,0
0.028172050209205,378429.62409478,0,0.028172050209205,0
0.028304937238494,372689.22473637,0,0.028304937238494,0
0.028437824267782,366832.765552,0,0.028437824267782,0
0.028570711297071,360853.61454672,0,0.028570711297071,0
0.02870359832636,354744.30425611,0,0.02870359832636,0
0.028836485355649,348496.37880468,0,0.028836485355649,0
0.028969372384937,342100.20683893,0,0.028969372384937,0
0.029102259414226,335544.75237903,0,0.029102259414226,0
0.029235146443515,328817.29374925,0,0.029235146443515,0
0.029368033472803,321903.07845876,0,0.029368033472803,0
0.029500920502092,314784.89914677,0,0.029500920502092,0
0.029633807531381,307442.57241269,0,0.029633807531381,0
0.029766694560669,299852.29847311,0,0.029766694560669,0
0.029899581589958,291985.87510604,0,0.029899581589958,0
0.030032468619247,283809.73430841,0,0.030032468619247,0
0.030165355648536,275283.76468371,0,0.030165355648536,0
0.030298242677824,266359.87719783,0,0.030298242677824,0
0.030431129707113,256980.26739722,0,0.030431129707113,0
0.030564016736402,247075.32497381,0,0.030564016736402,0
0.03069690376569,236561.14439455,0,0.03069690376569,0
0.030829790794979,225336.60302152,0,0.030829790794979,0
0.030962677824268,213280.00435259,0,0.030962677824268,0
0.031095564853556,200245.34925822,0,0.031095564853556,0
0.031228451882845,186058.42599413,0,0.031228451882845,0
0.031361338912134,170513.15468831,0,0.031361338912134,0
0.031494225941423,153369.09175613,0,0.031494225941423,0
0.031627112970711,134351.92103425,0,0.031627112970711,0
0.03176,113160.64650021,0,0.03176,0
