id,pressure,x,y,z
0,578880.345895,0,0,0
0.0001328870292887,578870.98231757,0,0.0001328870292887,0
0.00026577405857741,578860.83568787,0,0.00026577405857741,0
0.00039866108786611,578849.34936579,0,0.00039866108786611,0
0.00053154811715481,578836.12764367,0,0.00053154811715481,0
0.00066443514644351,578820.88920116,0,0.00066443514644351,0
0.00079732217573222,578803.43401946,0,0.00079732217573222,0
0.00093020920502092,578783.61986316,0,0.00093020920502092,0
0.0010630962343096,578761.34556287,0,0.0010630962343096,0
0.0011959832635983,578736.53913216,0,0.0011959832635983,0
0.001328870292887,578709.14932079,0,0.001328870292887,0
0.0014617573221757,578679.13961063,0,0.0014617573221757,0
0.0015946443514644,578646.48394778,0,0.0015946443514644,0
0.0017275313807531,578611.16370898,0,0.0017275313807531,0
0.0018604184100418,578573.1655452,0,0.0018604184100418,0
0.0019933054393305,578532.4798489,0,0.0019933054393305,0
0.0021261924686192,578489.09966452,0,0.0021261924686192,0
0.0022590794979079,578443.01991406,0,0.0022590794979079,0
0.0023919665271967,578394.23684663,0,0.0023919665271967,0
0.0025248535564854,578342.74764718,0,0.0025248535564854,0
0.0026577405857741,578288.55015847,0,0.0026577405857741,0
0.0027906276150628,578231.64268338,0,0.0027906276150628,0
0.0029235146443515,578172.02384456,0,0.0029235146443515,0
0.0030564016736402,578109.69248472,0,0.0030564016736402,0
0.0031892887029289,578044.64759582,0,0.0031892887029289,0
0.0033221757322176,577976.88826903,0,0.0033221757322176,0
0.0034550627615063,577906.41365934,0,0.0034550627615063,0
0.003587949790795,577833.22296077,0,0.003587949790795,0
0.0037208368200837,577757.31538938,0,0.0037208368200837,0
0.0038537238493724,577678.69017176,0,0.0038537238493724,0
0.0039866108786611,577597.34653809,0,0.0039866108786611,0
0.0041194979079498,577513.28371854,0,0.0041194979079498,0
0.0042523849372385,577426.50094287,0,0.0042523849372385,0
0.0043852719665272,577336.99744311,0,0.0043852719665272,0
0.0045181589958159,577244.77245956,0,0.0045181589958159,0
0.0046510460251046,577149.82525097,0,0.0046510460251046,0
0.0047839330543933,577052.15510993,0,0.0047839330543933,0
0.004916820083682,576951.76138551,0,0.004916820083682,0
0.0050497071129707,576848.64351551,0,0.0050497071129707,0
0.0051825941422594,576742.80107252,0,0.0051825941422594,0
0.0053154811715481,576634.23382875,0,0.0053154811715481,0
0.0054483682008368,576522.94184772,0,0.0054483682008368,0
0.0055812552301255,576408.92561323,0,0.0055812552301255,0
0.0057141422594142,576292.18621102,0,0.0057141422594142,0
0.0058470292887029,576172.72558434,0,0.0058470292887029,0
0.0059799163179916,576050.54689359,0,0.0059799163179916,0
0.0061128033472803,575925.65502226,0,0.0061128033472803,0
0.006245690376569,575798.0572887,0,0.006245690376569,0
0.0063785774058577,575667.76444739,0,0.0063785774058577,0
0.0065114644351464,575534.79209744,0,0.0065114644351464,0
0.0066443514644351,575399.16266394,0,0.0066443514644351,0
0.0067772384937238,575260.90818515,0,0.0067772384937238,0
0.0069101255230126,575120.07423308,0,0.0069101255230126,0
0.0070430125523013,574976.72542861,0,0.0070430125523013,0
0.00717589958159,574830.95319931,0,0.00717589958159,0
0.0073087866108787,574682.88669223,0,0.0073087866108787,0
0.0074416736401674,574532.7081243,0,0.0074416736401674,0
0.0075745606694561,574380.67437531,0,0.0075745606694561,0
0.0077074476987448,574227.14736151,0,0.0077074476987448,0
0.0078403347280335,574072.6367608,0,0.0078403347280335,0
0.0079732217573222,573917.86011128,0,0.0079732217573222,0
0.0081061087866109,573762.82471552,0,0.0081061087866109,0
0.0082389958158996,573606.88021987,0,0.0082389958158996,0
0.0083718828451883,573449.56607781,0,0.0083718828451883,0
0.008504769874477,573290.55602976,0,0.008504769874477,0
0.0086376569037657,573129.61882042,0,0.0086376569037657,0
0.0087705439330544,572966.59040517,0,0.0087705439330544,0
0.0089034309623431,572801.35428533,0,0.0089034309623431,0
0.0090363179916318,572633.82759482,0,0.0090363179916318,0
0.0091692050209205,572463.95125621,0,0.0091692050209205,0
0.0093020920502092,572291.68301575,0,0.0093020920502092,0
0.0094349790794979,572116.99251565,0,0.0094349790794979,0
0.0095678661087866,571939.85780748,0,0.0095678661087866,0
0.0097007531380753,571760.26288537,0,0.0097007531380753,0
0.009833640167364,571578.19594067,0,0.009833640167364,0
0.0099665271966527,571393.64812705,0,0.0099665271966527,0
0.010099414225941,571206.6126868,0,0.010099414225941,0
0.01023230125523,571017.08433257,0,0.01023230125523,0
0.010365188284519,570825.05880995,0,0.010365188284519,0
0.010498075313808,570630.53258792,0,0.010498075313808,0
0.010630962343096,570433.50263976,0,0.010630962343096,0
0.010763849372385,570233.96628799,0,0.010763849372385,0
0.010896736401674,570031.92109452,0,0.010896736401674,0
0.011029623430962,569827.36478284,0,0.011029623430962,0
0.011162510460251,569620.29518276,0,0.011162510460251,0
0.01129539748954,569410.7101911,0,0.01129539748954,0
0.011428284518828,569198.60774355,0,0.011428284518828,0
0.011561171548117,568983.98579433,0,0.011561171548117,0
0.011694058577406,568766.84230122,0,0.011694058577406,0
0.011826945606695,568547.17521408,0,0.011826945606695,0
0.011959832635983,568324.98246566,0,0.011959832635983,0
0.012092719665272,568100.26196338,0,0.012092719665272,0
0.012225606694561,567873.01158132,0,0.012225606694561,0
0.012358493723849,567643.22915131,0,0.012358493723849,0
0.012491380753138,567410.91245214,0,0.012491380753138,0
0.012624267782427,567176.05919554,0,0.012624267782427,0
0.012757154811715,566938.66700739,0,0.012757154811715,0
0.012890041841004,566698.73340172,0,0.012890041841004,0
0.013022928870293,566456.25574452,0,0.013022928870293,0
0.013155815899582,566211.23120298,0,0.013155815899582,0
0.01328870292887,565963.65667398,0,0.01328870292887,0
0.013421589958159,565713.52868337,0,0.013421589958159,0
0.013554476987448,565460.84324369,0,0.013554476987448,0
0.013687364016736,565205.59565343,0,0.013687364016736,0
0.013820251046025,564947.78021343,0,0.013820251046025,0
0.013953138075314,564687.38982626,0,0.013953138075314,0
0.014086025104603,564424.4154304,0,0.014086025104603,0
0.014218912133891,564158.84520075,0,0.014218912133891,0
0.01435179916318,563890.66341919,0,0.01435179916318,0
0.014484686192469,563619.84887891,0,0.014484686192469,0
0.014617573221757,563346.37262995,0,0.014617573221757,0
0.014750460251046,563070.19479402,0,0.014750460251046,0
0.014883347280335,562791.26006434,0,0.014883347280335,0
0.015016234309623,562509.49134752,0,0.015016234309623,0
0.015149121338912,562224.78078056,0,0.015149121338912,0
0.015282008368201,561936.97703908,0,0.015282008368201,0
0.01541489539749,561645.86740569,0,0.01541489539749,0
0.015547782426778,561351.15243531,0,0.015547782426778,0
0.015680669456067,561052.41016095,0,0.015680669456067,0
0.015813556485356,560749.04552188,0,0.015813556485356,0
0.015946443514644,560440.21891409,0,0.015946443514644,0
0.016079330543933,560125.87973217,0,0.016079330543933,0
0.016212217573222,559806.81918876,0,0.016212217573222,0
0.01634510460251,559483.59749012,0,0.01634510460251,0
0.016477991631799,559156.61097669,0,0.016477991631799,0
0.016610878661088,558826.13974704,0,0.016610878661088,0
0.016743765690377,558492.38143798,0,0.016743765690377,0
0.016876652719665,558155.47518485,0,0.016876652719665,0
0.017009539748954,557815.51861652,0,0.017009539748954,0
0.017142426778243,557472.57990979,0,0.017142426778243,0
0.017275313807531,557126.70633938,0,0.017275313807531,0
0.01740820083682,556777.93034204,0,0.01740820083682,0
0.017541087866109,556426.27381744,0,0.017541087866109,0
0.017673974895397,556071.75117818,0,0.017673974895397,0
0.017806861924686,555714.37151235,0,0.017806861924686,0
0.017939748953975,555354.14011649,0,0.017939748953975,0
0.018072635983264,554991.05958135,0,0.018072635983264,0
0.018205523012552,554625.13056014,0,0.018205523012552,0
0.018338410041841,554256.35231067,0,0.018338410041841,0
0.01847129707113,553884.72307611,0,0.01847129707113,0
0.018604184100418,553510.24034973,0,0.018604184100418,0
0.018737071129707,553132.90105518,0,0.018737071129707,0
0.018869958158996,552752.70166398,0,0.018869958158996,0
0.019002845188285,552369.63826412,0,0.019002845188285,0
0.019135732217573,551983.70658797,0,0.019135732217573,0
0.019268619246862,551594.90200317,0,0.019268619246862,0
0.019401506276151,551203.21946505,0,0.019401506276151,0
0.019534393305439,550808.65342538,0,0.019534393305439,0
0.019667280334728,550411.19768645,0,0.019667280334728,0
0.019800167364017,550010.84518329,0,0.019800167364017,0
0.019933054393305,549607.58766825,0,0.019933054393305,0
0.020065941422594,549201.41526042,0,0.020065941422594,0
0.020198828451883,548792.31580669,0,0.020198828451883,0
0.020331715481172,548380.27397848,0,0.020331715481172,0
0.02046460251046,547965.26999704,0,0.02046460251046,0
0.020597489539749,547547.27783612,0,0.020597489539749,0
0.020730376569038,547126.26268872,0,0.020730376569038,0
0.020863263598326,546702.17739742,0,0.020863263598326,0
0.020996150627615,546274.95742454,0,0.020996150627615,0
0.021129037656904,545844.51376555,0,0.021129037656904,0
0.021261924686192,545410.72296459,0,0.021261924686192,0
0.021394811715481,544973.41304745,0,0.021394811715481,0
0.02152769874477,544532.34370282,0,0.02152769874477,0
0.021660585774059,544087.17836007,0,0.021660585774059,0
0.021793472803347,543637.44485036,0,0.021793472803347,0
0.021926359832636,543182.47998329,0,0.021926359832636,0
0.022059246861925,542721.35146267,0,0.022059246861925,0
0.022192133891213,542252.74787649,0,0.022192133891213,0
0.022325020920502,541774.82370818,0,0.022325020920502,0
0.022457907949791,541284.98097935,0,0.022457907949791,0
0.022590794979079,540779.56161662,0,0.022590794979079,0
0.022723682008368,540253.41404237,0,0.022723682008368,0
0.022856569037657,539699.28256791,0,0.022856569037657,0
0.022989456066946,539106.94714492,0,0.022989456066946,0
0.023122343096234,538462.01141466,0,0.023122343096234,0
0.023255230125523,537744.1952716,0,0.023255230125523,0
0.023388117154812,536924.92937859,0,0.023388117154812,0
0.0235210041841,535963.96626502,0,0.0235210041841,0
0.023653891213389,534804.60598494,0,0.023653891213389,0
0.023786778242678,533366.96997812,0,0.023786778242678,0
0.023919665271967,531538.52535127,0,0.023919665271967,0
0.024052552301255,529232.24410337,0,0.024052552301255,0
0.024185439330544,526549.94759452,0,0.024185439330544,0
0.024318326359833,523569.11859013,0,0.024318326359833,0
0.024451213389121,520348.65210859,0,0.024451213389121,0
0.02458410041841,516933.2446965,0,0.02458410041841,0
0.024716987447699,513356.74428896,0,0.024716987447699,0
0.024849874476987,509644.7065498,0,0.024849874476987,0
0.024982761506276,505816.34537137,0,0.024982761506276,0
0.025115648535565,501886.02079139,0,0.025115648535565,0
0.025248535564854,497864.3736804,0,0.025248535564854,0
0.025381422594142,493759.19067192,0,0.025381422594142,0
0.025514309623431,489576.06304767,0,0.025514309623431,0
0.02564719665272,485318.88820205,0,0.02564719665272,0
0.025780083682008,480990.25078742,0,0.025780083682008,0
0.025912970711297,476591.71184067,0,0.025912970711297,0
0.026045857740586,472124.02746698,0,0.026045857740586,0
0.026178744769874,467587.31351709,0,0.026178744769874,0
0.026311631799163,462981.16876332,0,0.026311631799163,0
0.026444518828452,458304.76607015,0,0.026444518828452,0
0.026577405857741,453556.9187464,0,0.026577405857741,0
0.026710292887029,448736.1274914,0,0.026710292887029,0
0.026843179916318,443840.61197596,0,0.026843179916318,0
0.026976066945607,438868.33003227,0,0.026976066945607,0
0.027108953974895,433816.98658778,0,0.027108953974895,0
0.027241841004184,428684.03380641,0,0.027241841004184,0
0.027374728033473,423466.66334967,0,0.027374728033473,0
0.027507615062762,418161.79120133,0,0.027507615062762,0
0.02764050209205,412766.0350817,0,0.02764050209205,0
0.027773389121339,407275.68408384,0,0.027773389121339,0
0.027906276150628,401686.65977022,0,0.027906276150628,0
0.028039163179916,395994.46755094,0,0.028039163179916,0
0.028172050209205,390194.13670081,0,0.028172050209205,0
0.028304937238494,384280.14683731,0,0.028304937238494,0
0.028437824267782,378246.33804717,0,0.028437824267782,0
0.028570711297071,372085.8010851,0,0.028570711297071,0
0.02870359832636,365790.74313739,0,0.02870359832636,0
0.028836485355649,359352.32350324,0,0.028836485355649,0
0.028969372384937,352760.45214741,0,0.028969372384937,0
0.029102259414226,346003.54236181,0,0.029102259414226,0
0.029235146443515,339068.20667313,0,0.029235146443515,0
0.029368033472803,331938.88257546,0,0.029368033472803,0
0.029500920502092,324597.37157031,0,0.029500920502092,0
0.029633807531381,317022.27128363,0,0.029633807531381,0
0.029766694560669,309188.27603291,0,0.029766694560669,0
0.029899581589958,301065.31610307,0,0.029899581589958,0
0.030032468619247,292617.50019441,0,0.030032468619247,0
0.030165355648536,283801.81919647,0,0.030165355648536,0
0.030298242677824,274566.56303116,0,0.030298242677824,0
0.030431129707113,264849.39663753,0,0.030431129707113,0
0.030564016736402,254575.03783691,0,0.030564016736402,0
0.03069690376569,243652.48174457,0,0.03069690376569,0
0.030829790794979,231971.72885768,0,0.030829790794979,0
0.030962677824268,219400.00645062,0,0.030962677824268,0
0.031095564853556,205777.54275354,0,0.031095564853556,0
0.031228451882845,190913.09275581,0,0.031228451882845,0
0.031361338912134,174579.68517411,0,0.031361338912134,0
0.031494225941423,156511.58637506,0,0.031494225941423,0
0.031627112970711,136404.52419009,0,0.031627112970711,0
0.03176,113923.39736929,0,0.03176,0
