id,pressure,x,y,z
0,218210.66828709,0,0,0
0.0001328870292887,218207.65176754,0,0.0001328870292887,0
0.00026577405857741,218204.38298796,0,0.00026577405857741,0
0.00039866108786611,218200.68263135,0,0.00039866108786611,0
0.00053154811715481,218196.42322885,0,0.00053154811715481,0
0.00066443514644351,218191.5141649,0,0.00066443514644351,0
0.00079732217573222,218185.89101847,0,0.00079732217573222,0
0.00093020920502092,218179.5079866,0,0.00093020920502092,0
0.0010630962343096,218172.33249884,0,0.0010630962343096,0
0.0011959832635983,218164.34138913,0,0.0011959832635983,0
0.001328870292887,218155.51817462,0,0.001328870292887,0
0.0014617573221757,218145.85112152,0,0.0014617573221757,0
0.0015946443514644,218135.33187015,0,0.0015946443514644,0
0.0017275313807531,218123.95445774,0,0.0017275313807531,0
0.0018604184100418,218111.71462368,0,0.0018604184100418,0
0.0019933054393305,218098.60931583,0,0.0019933054393305,0
0.0021261924686192,218084.6363395,0,0.0021261924686192,0
0.0022590794979079,218069.79410795,0,0.0022590794979079,0
0.0023919665271967,218054.08146515,0,0.0023919665271967,0
0.0025248535564854,218037.49755966,0,0.0025248535564854,0
0.0026577405857741,218020.0417551,0,0.0026577405857741,0
0.0027906276150628,218001.71356649,0,0.0027906276150628,0
0.0029235146443515,217982.51261499,0,0.0029235146443515,0
0.0030564016736402,217962.43859584,0,0.0030564016736402,0
0.0031892887029289,217941.49125552,0,0.0031892887029289,0
0.0033221757322176,217919.67037564,0,0.0033221757322176,0
0.0034550627615063,217896.97576158,0,0.0034550627615063,0
0.003587949790795,217873.40723445,0,0.003587949790795,0
0.0037208368200837,217848.96462566,0,0.0037208368200837,0
0.0038537238493724,217823.64777324,0,0.0038537238493724,0
0.0039866108786611,217797.45651954,0,0.0039866108786611,0
0.0041194979079498,217770.39071017,0,0.0041194979079498,0
0.0042523849372385,217742.45019378,0,0.0042523849372385,0
0.0043852719665272,217713.63482301,0,0.0043852719665272,0
0.0045181589958159,217683.94445637,0,0.0045181589958159,0
0.0046510460251046,217653.37896152,0,0.0046510460251046,0
0.0047839330543933,217621.93822029,0,0.0047839330543933,0
0.004916820083682,217589.62213585,0,0.004916820083682,0
0.0050497071129707,217556.43064319,0,0.0050497071129707,0
0.0051825941422594,217522.36372386,0,0.0051825941422594,0
0.0053154811715481,217487.42142684,0,0.0053154811715481,0
0.0054483682008368,217451.603898,0,0.0054483682008368,0
0.0055812552301255,217414.91142155,0,0.0055812552301255,0
0.0057141422594142,217377.34447841,0,0.0057141422594142,0
0.0058470292887029,217338.90382836,0,0.0058470292887029,0
0.0059799163179916,217299.59062558,0,0.0059799163179916,0
0.0061128033472803,217259.40658123,0,0.0061128033472803,0
0.006245690376569,217218.35419221,0,0.006245690376569,0
0.0063785774058577,217176.43706284,0,0.0063785774058577,0
0.0065114644351464,217133.66035751,0,0.0065114644351464,0
0.0066443514644351,217090.03143734,0,0.0066443514644351,0
0.0067772384937238,217045.56075587,0,0.0067772384937238,0
0.0069101255230126,217000.26311891,0,0.0069101255230126,0
0.0070430125523013,216954.15945687,0,0.0070430125523013,0
0.00717589958159,216907.27931781,0,0.00717589958159,0
0.0073087866108787,216859.6643745,0,0.0073087866108787,0
0.0074416736401674,216811.37335762,0,0.0074416736401674,0
0.0075745606694561,216762.48899531,0,0.0075745606694561,0
0.0077074476987448,216713.12777491,0,0.0077074476987448,0
0.0078403347280335,216663.45367456,0,0.0078403347280335,0
0.0079732217573222,216613.69747897,0,0.0079732217573222,0
0.0081061087866109,216563.86164013,0,0.0081061087866109,0
0.0082389958158996,216513.7371971,0,0.0082389958158996,0
0.0083718828451883,216463.1762217,0,0.0083718828451883,0
0.008504769874477,216412.07396757,0,0.008504769874477,0
0.0086376569037657,216360.35623968,0,0.0086376569037657,0
0.0087705439330544,216307.97045787,0,0.0087705439330544,0
0.0089034309623431,216254.87933382,0,0.0089034309623431,0
0.0090363179916318,216201.05639733,0,0.0090363179916318,0
0.0091692050209205,216146.48283102,0,0.0091692050209205,0
0.0093020920502092,216091.14523069,0,0.0093020920502092,0
0.0094349790794979,216035.03402076,0,0.0094349790794979,0
0.0095678661087866,215978.14233314,0,0.0095678661087866,0
0.0097007531380753,215920.46521394,0,0.0097007531380753,0
0.009833640167364,215861.99906223,0,0.009833640167364,0
0.0099665271966527,215802.74123293,0,0.0099665271966527,0
0.010099414225941,215742.68975586,0,0.010099414225941,0
0.01023230125523,215681.84313689,0,0.01023230125523,0
0.010365188284519,215620.20021733,0,0.010365188284519,0
0.010498075313808,215557.76007434,0,0.010498075313808,0
0.010630962343096,215494.52195051,0,0.010630962343096,0
0.010763849372385,215430.48520403,0,0.010763849372385,0
0.010896736401674,215365.64927332,0,0.010896736401674,0
0.011029623430962,215300.01365208,0,0.011029623430962,0
0.011162510460251,215233.57787152,0,0.011162510460251,0
0.01129539748954,215166.34148771,0,0.01129539748954,0
0.011428284518828,215098.30407259,0,0.011428284518828,0
0.011561171548117,215029.46520744,0,0.011561171548117,0
0.011694058577406,214959.82447805,0,0.011694058577406,0
0.011826945606695,214889.38147113,0,0.011826945606695,0
0.011959832635983,214818.13577132,0,0.011959832635983,0
0.012092719665272,214746.08695859,0,0.012092719665272,0
0.012225606694561,214673.23460572,0,0.012225606694561,0
0.012358493723849,214599.57827546,0,0.012358493723849,0
0.012491380753138,214525.11751709,0,0.012491380753138,0
0.012624267782427,214449.85186202,0,0.012624267782427,0
0.012757154811715,214373.78081774,0,0.012757154811715,0
0.012890041841004,214296.90385963,0,0.012890041841004,0
0.013022928870293,214219.22041936,0,0.013022928870293,0
0.013155815899582,214140.72986879,0,0.013155815899582,0
0.01328870292887,214061.43149711,0,0.01328870292887,0
0.013421589958159,213981.32447878,0,0.013421589958159,0
0.013554476987448,213900.40782809,0,0.013554476987448,0
0.013687364016736,213818.6803352,0,0.013687364016736,0
0.013820251046025,213736.14047557,0,0.013820251046025,0
0.013953138075314,213652.78628219,0,0.013953138075314,0
0.014086025104603,213568.61516499,0,0.014086025104603,0
0.014218912133891,213483.62365565,0,0.014218912133891,0
0.01435179916318,213397.80704715,0,0.01435179916318,0
0.014484686192469,213311.15888443,0,0.014484686192469,0
0.014617573221757,213223.67024473,0,0.014617573221757,0
0.014750460251046,213135.32872079,0,0.014750460251046,0
0.014883347280335,213046.11698425,0,0.014883347280335,0
0.015016234309623,212956.01075575,0,0.015016234309623,0
0.015149121338912,212864.97593696,0,0.015149121338912,0
0.015282008368201,212772.96455835,0,0.015282008368201,0
0.01541489539749,212679.90905367,0,0.01541489539749,0
0.015547782426778,212585.7141705,0,0.015547782426778,0
0.015680669456067,212490.24554036,0,0.015680669456067,0
0.015813556485356,212393.31352954,0,0.015813556485356,0
0.015946443514644,212294.650422,0,0.015946443514644,0
0.016079330543933,212194.24061154,0,0.016079330543933,0
0.016212217573222,212092.3374365,0,0.016212217573222,0
0.01634510460251,211989.12040521,0,0.01634510460251,0
0.016477991631799,211884.7166534,0,0.016477991631799,0
0.016610878661088,211779.21616486,0,0.016610878661088,0
0.016743765690377,211672.68256813,0,0.016743765690377,0
0.016876652719665,211565.16079506,0,0.016876652719665,0
0.017009539748954,211456.68251319,0,0.017009539748954,0
0.017142426778243,211347.26997917,0,0.017142426778243,0
0.017275313807531,211236.93877197,0,0.017275313807531,0
0.01740820083682,211125.69973168,0,0.01740820083682,0
0.017541087866109,211013.56033451,0,0.017541087866109,0
0.017673974895397,210900.52566807,0,0.017673974895397,0
0.017806861924686,210786.59912285,0,0.017806861924686,0
0.017939748953975,210671.78288248,0,0.017939748953975,0
0.018072635983264,210556.07827101,0,0.018072635983264,0
0.018205523012552,210439.48599864,0,0.018205523012552,0
0.018338410041841,210322.00633524,0,0.018338410041841,0
0.01847129707113,210203.63923217,0,0.01847129707113,0
0.018604184100418,210084.38440715,0,0.018604184100418,0
0.018737071129707,209964.24140206,0,0.018737071129707,0
0.018869958158996,209843.20962071,0,0.018869958158996,0
0.019002845188285,209721.28835108,0,0.019002845188285,0
0.019135732217573,209598.47677457,0,0.019135732217573,0
0.019268619246862,209474.77396355,0,0.019268619246862,0
0.019401506276151,209350.17886677,0,0.019401506276151,0
0.019534393305439,209224.69028104,0,0.019534393305439,0
0.019667280334728,209098.30680567,0,0.019667280334728,0
0.019800167364017,208971.02677448,0,0.019800167364017,0
0.019933054393305,208842.84815706,0,0.019933054393305,0
0.020065941422594,208713.76841785,0,0.020065941422594,0
0.020198828451883,208583.78431602,0,0.020198828451883,0
0.020331715481172,208452.89162268,0,0.020331715481172,0
0.02046460251046,208321.0847216,0,0.02046460251046,0
0.020597489539749,208188.35604623,0,0.020597489539749,0
0.020730376569038,208054.69528613,0,0.020730376569038,0
0.020863263598326,207920.08826855,0,0.020863263598326,0
0.020996150627615,207784.5153825,0,0.020996150627615,0
0.021129037656904,207647.94935815,0,0.021129037656904,0
0.021261924686192,207510.35213799,0,0.021261924686192,0
0.021394811715481,207371.67046834,0,0.021394811715481,0
0.02152769874477,207231.82968784,0,0.02152769874477,0
0.021660585774059,207090.72497572,0,0.021660585774059,0
0.021793472803347,206948.20902073,0,0.021793472803347,0
0.021926359832636,206804.07464729,0,0.021926359832636,0
0.022059246861925,206658.03033632,0,0.022059246861925,0
0.022192133891213,206509.66573513,0,0.022192133891213,0
0.022325020920502,206358.40306246,0,0.022325020920502,0
0.022457907949791,206203.42864053,0,0.022457907949791,0
0.022590794979079,206043.5964272,0,0.022590794979079,0
0.022723682008368,205877.29209795,0,0.022723682008368,0
0.022856569037657,205702.2415453,0,0.022856569037657,0
0.022989456066946,205515.241066,0,0.022989456066946,0
0.023122343096234,205311.77721204,0,0.023122343096234,0
0.023255230125523,205085.49118631,0,0.023255230125523,0
0.023388117154812,204827.42421418,0,0.023388117154812,0
0.0235210041841,204524.95432878,0,0.0235210041841,0
0.023653891213389,204160.29838612,0,0.023653891213389,0
0.023786778242678,203708.40153172,0,0.023786778242678,0
0.023919665271967,203133.96367152,0,0.023919665271967,0
0.024052552301255,202409.74939426,0,0.024052552301255,0
0.024185439330544,201568.03907287,0,0.024185439330544,0
0.024318326359833,200633.43882671,0,0.024318326359833,0
0.024451213389121,199624.69239638,0,0.024451213389121,0
0.02458410041841,198556.06487758,0,0.02458410041841,0
0.024716987447699,197438.39945467,0,0.024716987447699,0
0.024849874476987,196279.92437927,0,0.024849874476987,0
0.024982761506276,195086.86918602,0,0.024982761506276,0
0.025115648535565,193863.93520078,0,0.025115648535565,0
0.025248535564854,192614.65475349,0,0.025248535564854,0
0.025381422594142,191341.66537961,0,0.025381422594142,0
0.025514309623431,190046.9190853,0,0.025514309623431,0
0.02564719665272,188731.84200949,0,0.02564719665272,0
0.025780083682008,187397.45619334,0,0.025780083682008,0
0.025912970711297,186044.47240061,0,0.025912970711297,0
0.026045857740586,184673.36081878,0,0.026045857740586,0
0.026178744769874,183284.40485575,0,0.026178744769874,0
0.026311631799163,181877.74201375,0,0.026311631799163,0
0.026444518828452,180453.39487948,0,0.026444518828452,0
0.026577405857741,179011.2945498,0,0.026577405857741,0
0.026710292887029,177551.29826186,0,0.026710292887029,0
0.026843179916318,176073.20257657,0,0.026843179916318,0
0.026976066945607,174576.75314258,0,0.026976066945607,0
0.027108953974895,173061.65182251,0,0.027108953974895,0
0.027241841004184,171527.56177494,0,0.027241841004184,0
0.027374728033473,169974.11094169,0,0.027374728033473,0
0.027507615062762,168400.89427958,0,0.027507615062762,0
0.02764050209205,166807.47499056,0,0.02764050209205,0
0.027773389121339,165193.38493909,0,0.027773389121339,0
0.027906276150628,163558.12439435,0,0.027906276150628,0
0.028039163179916,161901.16119554,0,0.028039163179916,0
0.028172050209205,160221.92940696,0,0.028172050209205,0
0.028304937238494,158519.82750476,0,0.028304937238494,0
0.028437824267782,156794.21611644,0,0.028437824267782,0
0.028570711297071,155044.41531717,0,0.028570711297071,0
0.02870359832636,153269.7014721,0,0.02870359832636,0
0.028836485355649,151469.3036003,0,0.028836485355649,0
0.028969372384937,149642.39922366,0,0.028969372384937,0
0.029102259414226,147788.10965184,0,0.029102259414226,0
0.029235146443515,145905.49464252,0,0.029235146443515,0
0.029368033472803,143993.54636384,0,0.029368033472803,0
0.029500920502092,142051.18257319,0,0.029500920502092,0
0.029633807531381,140077.23891367,0,0.029633807531381,0
0.029766694560669,138070.46021601,0,0.029766694560669,0
0.029899581589958,136029.49068021,0,0.029899581589958,0
0.030032468619247,133952.86279852,0,0.030032468619247,0
0.030165355648536,131838.98486985,0,0.030165355648536,0
0.030298242677824,129686.12694733,0,0.030298242677824,0
0.030431129707113,127492.40505786,0,0.030431129707113,0
0.030564016736402,125255.76353774,0,0.030564016736402,0
0.03069690376569,122973.95534755,0,0.03069690376569,0
0.030829790794979,120644.52026834,0,0.030829790794979,0
0.030962677824268,118264.76095033,0,0.030962677824268,0
0.031095564853556,115831.71689773,0,0.031095564853556,0
0.031228451882845,113342.13664848,0,0.031228451882845,0
0.031361338912134,110792.44867186,0,0.031361338912134,0
0.031494225941423,108178.73189751,0,0.031494225941423,0
0.031627112970711,105496.68735662,0,0.031627112970711,0
0.03176,102741.61323124,0,0.03176,0
