id,pressure,x,y,z
0,153788.99887476,0,0,0
0.0001328870292887,153787.44293324,0,0.0001328870292887,0
0.00026577405857741,153785.75687668,0,0.00026577405857741,0
0.00039866108786611,153783.84821663,0,0.00039866108786611,0
0.00053154811715481,153781.6512102,0,0.00053154811715481,0
0.00066443514644351,153779.11912552,0,0.00066443514644351,0
0.00079732217573222,153776.21874391,0,0.00079732217573222,0
0.00093020920502092,153772.9264519,0,0.00093020920502092,0
0.0010630962343096,153769.22546328,0,0.0010630962343096,0
0.0011959832635983,153765.10384465,0,0.0011959832635983,0
0.001328870292887,153760.55311176,0,0.001328870292887,0
0.0014617573221757,153755.56723194,0,0.0014617573221757,0
0.0015946443514644,153750.14191487,0,0.0015946443514644,0
0.0017275313807531,153744.27410855,0,0.0017275313807531,0
0.0018604184100418,153737.96164098,0,0.0018604184100418,0
0.0019933054393305,153731.20296551,0,0.0019933054393305,0
0.0021261924686192,153723.99697975,0,0.0021261924686192,0
0.0022590794979079,153716.34289693,0,0.0022590794979079,0
0.0023919665271967,153708.24015445,0,0.0023919665271967,0
0.0025248535564854,153699.68834887,0,0.0025248535564854,0
0.0026577405857741,153690.68718967,0,0.0026577405857741,0
0.0027906276150628,153681.23646646,0,0.0027906276150628,0
0.0029235146443515,153671.33602566,0,0.0029235146443515,0
0.0030564016736402,153660.98575389,0,0.0030564016736402,0
0.0031892887029289,153650.18556628,0,0.0031892887029289,0
0.0033221757322176,153638.93539808,0,0.0033221757322176,0
0.0034550627615063,153627.23519886,0,0.0034550627615063,0
0.003587949790795,153615.08492835,0,0.003587949790795,0
0.0037208368200837,153602.48455364,0,0.0037208368200837,0
0.0038537238493724,153589.43404727,0,0.0038537238493724,0
0.0039866108786611,153575.9333861,0,0.0039866108786611,0
0.0041194979079498,153561.98255066,0,0.0041194979079498,0
0.0042523849372385,153547.58152516,0,0.0042523849372385,0
0.0043852719665272,153532.73029789,0,0.0043852719665272,0
0.0045181589958159,153517.42886223,0,0.0045181589958159,0
0.0046510460251046,153501.67721835,0,0.0046510460251046,0
0.0047839330543933,153485.47537574,0,0.0047839330543933,0
0.004916820083682,153468.82335696,0,0.004916820083682,0
0.0050497071129707,153451.72120299,0,0.0050497071129707,0
0.0051825941422594,153434.16898083,0,0.0051825941422594,0
0.0053154811715481,153416.16679424,0,0.0053154811715481,0
0.0054483682008368,153397.71479886,0,0.0054483682008368,0
0.0055812552301255,153378.81322353,0,0.0055812552301255,0
0.0057141422594142,153359.46240033,0,0.0057141422594142,0
0.0058470292887029,153339.66280679,0,0.0058470292887029,0
0.0059799163179916,153319.41512527,0,0.0059799163179916,0
0.0061128033472803,153298.72032663,0,0.0061128033472803,0
0.006245690376569,153277.57978771,0,0.006245690376569,0
0.0063785774058577,153255.99545686,0,0.0063785774058577,0
0.0065114644351464,153233.97008656,0,0.0065114644351464,0
0.0066443514644351,153211.50756084,0,0.0066443514644351,0
0.0067772384937238,153188.61335574,0,0.0067772384937238,0
0.0069101255230126,153165.2951872,0,0.0069101255230126,0
0.0070430125523013,153141.56392228,0,0.0070430125523013,0
0.00717589958159,153117.43486121,0,0.00717589958159,0
0.0073087866108787,153092.92954073,0,0.0073087866108787,0
0.0074416736401674,153068.07827102,0,0.0074416736401674,0
0.0075745606694561,153042.92370435,0,0.0075745606694561,0
0.0077074476987448,153017.5258553,0,0.0077074476987448,0
0.0078403347280335,152991.96916282,0,0.0078403347280335,0
0.0079732217573222,152966.3724244,0,0.0079732217573222,0
0.0081061087866109,152940.73696503,0,0.0081061087866109,0
0.0082389958158996,152914.95535263,0,0.0082389958158996,0
0.0083718828451883,152888.95156292,0,0.0083718828451883,0
0.008504769874477,152862.67179437,0,0.008504769874477,0
0.0086376569037657,152836.07796921,0,0.0086376569037657,0
0.0087705439330544,152809.14313499,0,0.0087705439330544,0
0.0089034309623431,152781.84821086,0,0.0089034309623431,0
0.0090363179916318,152754.17968542,0,0.0090363179916318,0
0.0091692050209205,152726.12798782,0,0.0091692050209205,0
0.0093020920502092,152697.68633515,0,0.0093020920502092,0
0.0094349790794979,152668.849917,0,0.0094349790794979,0
0.0095678661087866,152639.61531841,0,0.0095678661087866,0
0.0097007531380753,152609.98011163,0,0.0097007531380753,0
0.009833640167364,152579.94256724,0,0.009833640167364,0
0.0099665271966527,152549.50144978,0,0.0099665271966527,0
0.010099414225941,152518.65587308,0,0.010099414225941,0
0.01023230125523,152487.40519798,0,0.01023230125523,0
0.010365188284519,152455.74895994,0,0.010365188284519,0
0.010498075313808,152423.68681773,0,0.010498075313808,0
0.010630962343096,152391.21851726,0,0.010630962343096,0
0.010763849372385,152358.34386588,0,0.010763849372385,0
0.010896736401674,152325.0627142,0,0.010896736401674,0
0.011029623430962,152291.37494325,0,0.011029623430962,0
0.011162510460251,152257.28045533,0,0.011162510460251,0
0.01129539748954,152222.77916753,0,0.01129539748954,0
0.011428284518828,152187.87100707,0,0.011428284518828,0
0.011561171548117,152152.55590801,0,0.011561171548117,0
0.011694058577406,152116.8338087,0,0.011694058577406,0
0.011826945606695,152080.70465,0,0.011826945606695,0
0.011959832635983,152044.16837373,0,0.011959832635983,0
0.012092719665272,152007.22492134,0,0.012092719665272,0
0.012225606694561,151969.87423265,0,0.012225606694561,0
0.012358493723849,151932.11624438,0,0.012358493723849,0
0.012491380753138,151893.95088845,0,0.012491380753138,0
0.012624267782427,151855.37808969,0,0.012624267782427,0
0.012757154811715,151816.3977628,0,0.012757154811715,0
0.012890041841004,151777.00980817,0,0.012890041841004,0
0.013022928870293,151737.21410601,0,0.013022928870293,0
0.013155815899582,151697.01050809,0,0.013155815899582,0
0.01328870292887,151656.39882616,0,0.01328870292887,0
0.013421589958159,151615.37881559,0,0.013421589958159,0
0.013554476987448,151573.95015222,0,0.013554476987448,0
0.013687364016736,151532.11239976,0,0.013687364016736,0
0.013820251046025,151489.86496363,0,0.013820251046025,0
0.013953138075314,151447.20702585,0,0.013953138075314,0
0.014086025104603,151404.13745293,0,0.014086025104603,0
0.014218912133891,151360.65466578,0,0.014218912133891,0
0.01435179916318,151316.75645594,0,0.01435179916318,0
0.014484686192469,151272.43972582,0,0.014484686192469,0
0.014617573221757,151227.70012169,0,0.014617573221757,0
0.014750460251046,151182.53151519,0,0.014750460251046,0
0.014883347280335,151136.92527051,0,0.014883347280335,0
0.015016234309623,151090.86920911,0,0.015016234309623,0
0.015149121338912,151044.34614677,0,0.015149121338912,0
0.015282008368201,150997.33182646,0,0.015282008368201,0
0.01541489539749,150949.79199754,0,0.01541489539749,0
0.015547782426778,150901.67828862,0,0.015547782426778,0
0.015680669456067,150852.92237605,0,0.015680669456067,0
0.015813556485356,150803.42774399,0,0.015813556485356,0
0.015946443514644,150753.05804162,0,0.015946443514644,0
0.016079330543933,150701.80565269,0,0.016079330543933,0
0.016212217573222,150649.80026435,0,0.016212217573222,0
0.01634510460251,150597.13385304,0,0.01634510460251,0
0.016477991631799,150543.87164324,0,0.016477991631799,0
0.016610878661088,150490.05988166,0,0.016610878661088,0
0.016743765690377,150435.73135222,0,0.016743765690377,0
0.016876652719665,150380.90928824,0,0.016876652719665,0
0.017009539748954,150325.61014779,0,0.017009539748954,0
0.017142426778243,150269.84558243,0,0.017142426778243,0
0.017275313807531,150213.62383375,0,0.017275313807531,0
0.01740820083682,150156.9507241,0,0.01740820083682,0
0.017541087866109,150099.83035929,0,0.017541087866109,0
0.017673974895397,150042.26562702,0,0.017673974895397,0
0.017806861924686,149984.25855035,0,0.017806861924686,0
0.017939748953975,149925.81053827,0,0.017939748953975,0
0.018072635983264,149866.92256334,0,0.018072635983264,0
0.018205523012552,149807.59528729,0,0.018205523012552,0
0.018338410041841,149747.82914977,0,0.018338410041841,0
0.01847129707113,149687.62443077,0,0.01847129707113,0
0.018604184100418,149626.98129397,0,0.018604184100418,0
0.018737071129707,149565.8998165,0,0.018737071129707,0
0.018869958158996,149504.3800083,0,0.018869958158996,0
0.019002845188285,149442.42182365,0,0.019002845188285,0
0.019135732217573,149380.02516612,0,0.019135732217573,0
0.019268619246862,149317.18988761,0,0.019268619246862,0
0.019401506276151,149253.91578123,0,0.019401506276151,0
0.019534393305439,149190.20256735,0,0.019534393305439,0
0.019667280334728,149126.04987102,0,0.019667280334728,0
0.019800167364017,149061.45718818,0,0.019800167364017,0
0.019933054393305,148996.42383662,0,0.019933054393305,0
0.020065941422594,148930.94888576,0,0.020065941422594,0
0.020198828451883,148865.0310571,0,0.020198828451883,0
0.020331715481172,148798.66858338,0,0.020331715481172,0
0.02046460251046,148731.85900974,0,0.02046460251046,0
0.020597489539749,148664.59891333,0,0.020597489539749,0
0.020730376569038,148596.88350791,0,0.020730376569038,0
0.020863263598326,148528.70608675,0,0.020863263598326,0
0.020996150627615,148460.0572373,0,0.020996150627615,0
0.021129037656904,148390.92373474,0,0.021129037656904,0
0.021261924686192,148321.28698264,0,0.021261924686192,0
0.021394811715481,148251.12081574,0,0.021394811715481,0
0.02152769874477,148180.38840393,0,0.02152769874477,0
0.021660585774059,148109.03788943,0,0.021660585774059,0
0.021793472803347,148036.99623933,0,0.021793472803347,0
0.021926359832636,147964.16058319,0,0.021926359832636,0
0.022059246861925,147890.38600693,0,0.022059246861925,0
0.022192133891213,147815.46835332,0,0.022192133891213,0
0.022325020920502,147739.11998644,0,0.022325020920502,0
0.022457907949791,147660.93564174,0,0.022457907949791,0
0.022590794979079,147580.34430589,0,0.022590794979079,0
0.022723682008368,147496.5414118,0,0.022723682008368,0
0.022856569037657,147408.3932959,0,0.022856569037657,0
0.022989456066946,147314.30257131,0,0.022989456066946,0
0.023122343096234,147212.01842862,0,0.023122343096234,0
0.023255230125523,147098.36933599,0,0.023255230125523,0
0.023388117154812,146968.88639512,0,0.023388117154812,0
0.0235210041841,146817.27262434,0,0.0235210041841,0
0.023653891213389,146634.65514441,0,0.023653891213389,0
0.023786778242678,146408.5314622,0,0.023786778242678,0
0.023919665271967,146121.2847333,0,0.023919665271967,0
0.024052552301255,145759.36411438,0,0.024052552301255,0
0.024185439330544,145339.09785329,0,0.024185439330544,0
0.024318326359833,144872.95711507,0,0.024318326359833,0
0.024451213389121,144370.46489339,0,0.024451213389121,0
0.02458410041841,143838.89072398,0,0.02458410041841,0
0.024716987447699,143283.78167211,0,0.024716987447699,0
0.024849874476987,142709.36817587,0,0.024849874476987,0
0.024982761506276,142118.87423415,0,0.024982761506276,0
0.025115648535565,141514.7544797,0,0.025115648535565,0
0.025248535564854,140898.8753661,0,0.025248535564854,0
0.025381422594142,140272.65363854,0,0.025381422594142,0
0.025514309623431,139637.16215455,0,0.025514309623431,0
0.02564719665272,138993.21074949,0,0.02564719665272,0
0.025780083682008,138341.40802824,0,0.025780083682008,0
0.025912970711297,137682.20857848,0,0.025912970711297,0
0.026045857740586,137015.94904185,0,0.026045857740586,0
0.026178744769874,136342.87566914,0,0.026178744769874,0
0.026311631799163,135663.16536695,0,0.026311631799163,0
0.026444518828452,134976.94176981,0,0.026444518828452,0
0.026577405857741,134284.28751031,0,0.026577405857741,0
0.026710292887029,133585.25358333,0,0.026710292887029,0
0.026843179916318,132879.86648895,0,0.026843179916318,0
0.026976066945607,132168.13367744,0,0.026976066945607,0
0.027108953974895,131450.04769591,0,0.027108953974895,0
0.027241841004184,130725.58934227,0,0.027241841004184,0
0.027374728033473,129994.73005953,0,0.027374728033473,0
0.027507615062762,129257.43374874,0,0.027507615062762,0
0.02764050209205,128513.65813641,0,0.02764050209205,0
0.027773389121339,127763.35580014,0,0.027773389121339,0
0.027906276150628,127006.47493136,0,0.027906276150628,0
0.028039163179916,126242.9598952,0,0.028039163179916,0
0.028172050209205,125472.751633,0,0.028172050209205,0
0.028304937238494,124695.78794155,0,0.028304937238494,0
0.028437824267782,123912.0036546,0,0.028437824267782,0
0.028570711297071,123121.33074537,0,0.028570711297071,0
0.02870359832636,122323.69836302,0,0.02870359832636,0
0.028836485355649,121519.03281201,0,0.028836485355649,0
0.028969372384937,120707.25747906,0,0.028969372384937,0
0.029102259414226,119888.29270929,0,0.029102259414226,0
0.029235146443515,119062.05562969,0,0.029235146443515,0
0.029368033472803,118228.45991478,0,0.029368033472803,0
0.029500920502092,117387.41548573,0,0.029500920502092,0
0.029633807531381,116538.82812968,0,0.029633807531381,0
0.029766694560669,115682.59902145,0,0.029766694560669,0
0.029899581589958,114818.62412284,0,0.029899581589958,0
0.030032468619247,113946.79342735,0,0.030032468619247,0
0.030165355648536,113066.99000769,0,0.030165355648536,0
0.030298242677824,112179.08881036,0,0.030298242677824,0
0.030431129707113,111282.95512491,0,0.030431129707113,0
0.030564016736402,110378.44263377,0,0.030564016736402,0
0.03069690376569,109465.39091982,0,0.03069690376569,0
0.030829790794979,108543.62227308,0,0.030829790794979,0
0.030962677824268,107612.93758972,0,0.030962677824268,0
0.031095564853556,106673.11109539,0,0.031095564853556,0
0.031228451882845,105723.88354495,0,0.031228451882845,0
0.031361338912134,104764.95344694,0,0.031361338912134,0
0.031494225941423,103795.96572666,0,0.031494225941423,0
0.031627112970711,102816.49706732,0,0.031627112970711,0
0.03176,101826.03694222,0,0.03176,0
