id,pressure,x,y,z
0,2040053.6398904,0,0,0
0.0001328870292887,2040028.5074312,0,0.0001328870292887,0
0.00026577405857741,2040001.2732093,0,0.00026577405857741,0
0.00039866108786611,2039970.4431696,0,0.00039866108786611,0
0.00053154811715481,2039934.9552139,0,0.00053154811715481,0
0.00066443514644351,2039894.0542712,0,0.00066443514644351,0
0.00079732217573222,2039847.2034948,0,0.00079732217573222,0
0.00093020920502092,2039794.0211379,0,0.00093020920502092,0
0.0010630962343096,2039734.2356838,0,0.0010630962343096,0
0.0011959832635983,2039667.6539512,0,0.0011959832635983,0
0.001328870292887,2039594.1384226,0,0.001328870292887,0
0.0014617573221757,2039513.5911289,0,0.0014617573221757,0
0.0015946443514644,2039425.9421943,0,0.0015946443514644,0
0.0017275313807531,2039331.1416938,0,0.0017275313807531,0
0.0018604184100418,2039229.1538653,0,0.0018604184100418,0
0.0019933054393305,2039119.9529956,0,0.0019933054393305,0
0.0021261924686192,2039003.520496,0,0.0021261924686192,0
0.0022590794979079,2038879.8428236,0,0.0022590794979079,0
0.0023919665271967,2038748.9100038,0,0.0023919665271967,0
0.0025248535564854,2038610.7145805,0,0.0025248535564854,0
0.0026577405857741,2038465.2508692,0,0.0026577405857741,0
0.0027906276150628,2038312.5144268,0,0.0027906276150628,0
0.0029235146443515,2038152.5016749,0,0.0029235146443515,0
0.0030564016736402,2037985.2096318,0,0.0030564016736402,0
0.0031892887029289,2037810.6357229,0,0.0031892887029289,0
0.0033221757322176,2037628.7776461,0,0.0033221757322176,0
0.0034550627615063,2037439.6332769,0,0.0034550627615063,0
0.003587949790795,2037243.2006022,0,0.003587949790795,0
0.0037208368200837,2037039.4776741,0,0.0037208368200837,0
0.0038537238493724,2036828.4625794,0,0.0038537238493724,0
0.0039866108786611,2036610.1534211,0,0.0039866108786611,0
0.0041194979079498,2036384.5483086,0,0.0041194979079498,0
0.0042523849372385,2036151.6453565,0,0.0042523849372385,0
0.0043852719665272,2035911.4426921,0,0.0043852719665272,0
0.0045181589958159,2035663.9384713,0,0.0045181589958159,0
0.0046510460251046,2035409.1309063,0,0.0046510460251046,0
0.0047839330543933,2035147.0183062,0,0.0047839330543933,0
0.004916820083682,2034877.5991383,0,0.004916820083682,0
0.0050497071129707,2034600.8721148,0,0.0050497071129707,0
0.0051825941422594,2034316.8363156,0,0.0051825941422594,0
0.0053154811715481,2034025.4913629,0,0.0053154811715481,0
0.0054483682008368,2033726.8376667,0,0.0054483682008368,0
0.0055812552301255,2033420.8767708,0,0.0055812552301255,0
0.0057141422594142,2033107.6118402,0,0.0057141422594142,0
0.0058470292887029,2032787.0483461,0,0.0058470292887029,0
0.0059799163179916,2032459.1950308,0,0.0059799163179916,0
0.0061128033472803,2032124.0652644,0,0.0061128033472803,0
0.006245690376569,2031781.6789537,0,0.006245690376569,0
0.0063785774058577,2031432.0652278,0,0.0063785774058577,0
0.0065114644351464,2031075.2662154,0,0.0065114644351464,0
0.0066443514644351,2030711.3423592,0,0.0066443514644351,0
0.0067772384937238,2030340.3798915,0,0.0067772384937238,0
0.0069101255230126,2029962.5013497,0,0.0069101255230126,0
0.0070430125523013,2029577.8803697,0,0.0070430125523013,0
0.00717589958159,2029186.7624946,0,0.00717589958159,0
0.0073087866108787,2028789.4944469,0,0.0073087866108787,0
0.0074416736401674,2028386.5653059,0,0.0074416736401674,0
0.0075745606694561,2027978.6644312,0,0.0075745606694561,0
0.0077074476987448,2027566.7629431,0,0.0077074476987448,0
0.0078403347280335,2027152.2283408,0,0.0078403347280335,0
0.0079732217573222,2026736.9857321,0,0.0079732217573222,0
0.0081061087866109,2026321.0547362,0,0.0081061087866109,0
0.0082389958158996,2025902.6905915,0,0.0082389958158996,0
0.0083718828451883,2025480.6578025,0,0.0083718828451883,0
0.008504769874477,2025054.0811904,0,0.008504769874477,0
0.0086376569037657,2024622.3405018,0,0.0086376569037657,0
0.0087705439330544,2024184.9958386,0,0.0087705439330544,0
0.0089034309623431,2023741.734896,0,0.0089034309623431,0
0.0090363179916318,2023292.3356306,0,0.0090363179916318,0
0.0091692050209205,2022836.6398458,0,0.0091692050209205,0
0.0093020920502092,2022374.5345029,0,0.0093020920502092,0
0.0094349790794979,2021905.9384972,0,0.0094349790794979,0
0.0095678661087866,2021430.7933014,0,0.0095678661087866,0
0.0097007531380753,2020949.0563461,0,0.0097007531380753,0
0.009833640167364,2020460.6963349,0,0.009833640167364,0
0.0099665271966527,2019965.689931,0,0.0099665271966527,0
0.010099414225941,2019464.0194113,0,0.010099414225941,0
0.01023230125523,2018955.6710078,0,0.01023230125523,0
0.010365188284519,2018440.6337332,0,0.010365188284519,0
0.010498075313808,2017918.8985498,0,0.010498075313808,0
0.010630962343096,2017390.457782,0,0.010630962343096,0
0.010763849372385,2016855.3046997,0,0.010763849372385,0
0.010896736401674,2016313.4332233,0,0.010896736401674,0
0.011029623430962,2015764.8377154,0,0.011029623430962,0
0.011162510460251,2015209.5128323,0,0.011162510460251,0
0.01129539748954,2014647.4534185,0,0.01129539748954,0
0.011428284518828,2014078.6544309,0,0.011428284518828,0
0.011561171548117,2013503.1108852,0,0.011561171548117,0
0.011694058577406,2012920.8178147,0,0.011694058577406,0
0.011826945606695,2012331.7702404,0,0.011826945606695,0
0.011959832635983,2011735.9631462,0,0.011959832635983,0
0.012092719665272,2011133.3914568,0,0.012092719665272,0
0.012225606694561,2010524.0500164,0,0.012225606694561,0
0.012358493723849,2009907.9335652,0,0.012358493723849,0
0.012491380753138,2009285.03671,0,0.012491380753138,0
0.012624267782427,2008655.3538878,0,0.012624267782427,0
0.012757154811715,2008018.8793144,0,0.012757154811715,0
0.012890041841004,2007375.606916,0,0.012890041841004,0
0.013022928870293,2006725.5302317,0,0.013022928870293,0
0.013155815899582,2006068.6422782,0,0.013155815899582,0
0.01328870292887,2005404.9353585,0,0.01328870292887,0
0.013421589958159,2004734.4007923,0,0.013421589958159,0
0.013554476987448,2004057.0285352,0,0.013554476987448,0
0.013687364016736,2003372.8066422,0,0.013687364016736,0
0.013820251046025,2002681.7205076,0,0.013820251046025,0
0.013953138075314,2001983.7517938,0,0.013953138075314,0
0.014086025104603,2001278.8769163,0,0.014086025104603,0
0.014218912133891,2000567.0649033,0,0.014218912133891,0
0.01435179916318,1999848.2743726,0,0.01435179916318,0
0.014484686192469,1999122.4492591,0,0.014484686192469,0
0.014617573221757,1998389.5127789,0,0.014617573221757,0
0.014750460251046,1997649.3589008,0,0.014750460251046,0
0.014883347280335,1996901.8402961,0,0.014883347280335,0
0.015016234309623,1996146.7513124,0,0.015016234309623,0
0.015149121338912,1995383.8039169,0,0.015149121338912,0
0.015282008368201,1994612.5937061,0,0.015282008368201,0
0.01541489539749,1993832.5518795,0,0.01541489539749,0
0.015547782426778,1993042.877382,0,0.015547782426778,0
0.015680669456067,1992242.4410257,0,0.015680669456067,0
0.015813556485356,1991429.6500214,0,0.015813556485356,0
0.015946443514644,1990602.256573,0,0.015946443514644,0
0.016079330543933,1989760.1268883,0,0.016079330543933,0
0.016212217573222,1988905.3825624,0,0.016212217573222,0
0.01634510460251,1988039.5261916,0,0.01634510460251,0
0.016477991631799,1987163.6212497,0,0.016477991631799,0
0.016610878661088,1986278.4196888,0,0.016610878661088,0
0.016743765690377,1985384.4524546,0,0.016743765690377,0
0.016876652719665,1984482.0936946,0,0.016876652719665,0
0.017009539748954,1983571.6063044,0,0.017009539748954,0
0.017142426778243,1982653.1742363,0,0.017142426778243,0
0.017275313807531,1981726.9254168,0,0.017275313807531,0
0.01740820083682,1980792.9480028,0,0.01740820083682,0
0.017541087866109,1979851.3019118,0,0.017541087866109,0
0.017673974895397,1978902.0269998,0,0.017673974895397,0
0.017806861924686,1977945.1488599,0,0.017806861924686,0
0.017939748953975,1976980.6829333,0,0.017939748953975,0
0.018072635983264,1976008.6374217,0,0.018072635983264,0
0.018205523012552,1975029.015348,0,0.018205523012552,0
0.018338410041841,1974041.8160112,0,0.018338410041841,0
0.01847129707113,1973047.0360078,0,0.01847129707113,0
0.018604184100418,1972044.6699435,0,0.018604184100418,0
0.018737071129707,1971034.7109173,0,0.018737071129707,0
0.018869958158996,1970017.1508378,0,0.018869958158996,0
0.019002845188285,1968991.9806092,0,0.019002845188285,0
0.019135732217573,1967959.1902079,0,0.019135732217573,0
0.019268619246862,1966918.7686608,0,0.019268619246862,0
0.019401506276151,1965870.7039214,0,0.019401506276151,0
0.019534393305439,1964814.9826296,0,0.019534393305439,0
0.019667280334728,1963751.5897273,0,0.019667280334728,0
0.019800167364017,1962680.5078834,0,0.019800167364017,0
0.019933054393305,1961601.71666,0,0.019933054393305,0
0.020065941422594,1960515.1913224,0,0.020065941422594,0
0.020198828451883,1959420.9011492,0,0.020198828451883,0
0.020331715481172,1958318.8070439,0,0.020331715481172,0
0.02046460251046,1957208.8581644,0,0.02046460251046,0
0.020597489539749,1956090.9871686,0,0.020597489539749,0
0.020730376569038,1954965.1035137,0,0.020730376569038,0
0.020863263598326,1953831.0840128,0,0.020863263598326,0
0.020996150627615,1952688.759527,0,0.020996150627615,0
0.021129037656904,1951537.8962147,0,0.021129037656904,0
0.021261924686192,1950378.1691105,0,0.021261924686192,0
0.021394811715481,1949209.1248975,0,0.021394811715481,0
0.02152769874477,1948030.1294529,0,0.02152769874477,0
0.021660585774059,1946840.2939404,0,0.021660585774059,0
0.021793472803347,1945638.3706736,0,0.021793472803347,0
0.021926359832636,1944422.6063883,0,0.021926359832636,0
0.022059246861925,1943190.5355037,0,0.022059246861925,0
0.022192133891213,1941938.6888295,0,0.022192133891213,0
0.022325020920502,1940662.183137,0,0.022325020920502,0
0.022457907949791,1939354.1428702,0,0.022457907949791,0
0.022590794979079,1938004.8853458,0,0.022590794979079,0
0.022723682008368,1936600.772715,0,0.022723682008368,0
0.022856569037657,1935122.5944011,0,0.022856569037657,0
0.022989456066946,1933543.287993,0,0.022989456066946,0
0.023122343096234,1931824.7280441,0,0.023122343096234,0
0.023255230125523,1929913.2015853,0,0.023255230125523,0
0.023388117154812,1927733.0332687,0,0.023388117154812,0
0.0235210041841,1925177.6034248,0,0.0235210041841,0
0.023653891213389,1922096.6928579,0,0.023653891213389,0
0.023786778242678,1918278.652209,0,0.023786778242678,0
0.023919665271967,1913425.2798536,0,0.023919665271967,0
0.024052552301255,1907306.5544328,0,0.024052552301255,0
0.024185439330544,1900195.4685322,0,0.024185439330544,0
0.024318326359833,1892300.1614632,0,0.024318326359833,0
0.024451213389121,1883779.2136741,0,0.024451213389121,0
0.02458410041841,1874753.3309589,0,0.02458410041841,0
0.024716987447699,1865314.2702007,0,0.024716987447699,0
0.024849874476987,1855531.6575148,0,0.024849874476987,0
0.024982761506276,1845458.1960105,0,0.024982761506276,0
0.025115648535565,1835133.6430257,0,0.025115648535565,0
0.025248535564854,1824587.8470177,0,0.025248535564854,0
0.025381422594142,1813843.0657833,0,0.025381422594142,0
0.025514309623431,1802915.735314,0,0.025514309623431,0
0.02564719665272,1791817.8185699,0,0.02564719665272,0
0.025780083682008,1780557.8328537,0,0.025780083682008,0
0.025912970711297,1769141.6310495,0,0.025912970711297,0
0.026045857740586,1757572.9940687,0,0.026045857740586,0
0.026178744769874,1745854.0780981,0,0.026178744769874,0
0.026311631799163,1733985.7496836,0,0.026311631799163,0
0.026444518828452,1721967.833529,0,0.026444518828452,0
0.026577405857741,1709799.2915576,0,0.026577405857741,0
0.026710292887029,1697478.3468118,0,0.026710292887029,0
0.026843179916318,1685002.5617885,0,0.026843179916318,0
0.026976066945607,1672368.8775449,0,0.026976066945607,0
0.027108953974895,1659573.6171188,0,0.027108953974895,0
0.027241841004184,1646612.4542923,0,0.027241841004184,0
0.027374728033473,1633480.3463097,0,0.027374728033473,0
0.027507615062762,1620171.4266684,0,0.027507615062762,0
0.02764050209205,1606678.8513577,0,0.02764050209205,0
0.027773389121339,1592994.5887439,0,0.027773389121339,0
0.027906276150628,1579109.1394607,0,0.027906276150628,0
0.028039163179916,1565011.1679109,0,0.028039163179916,0
0.028172050209205,1550687.0209863,0,0.028172050209205,0
0.028304937238494,1536120.1019659,0,0.028304937238494,0
0.028437824267782,1521290.057743,0,0.028437824267782,0
0.028570711297071,1506171.7248923,0,0.028570711297071,0
0.02870359832636,1490733.7637787,0,0.02870359832636,0
0.028836485355649,1474936.8888337,0,0.028836485355649,0
0.028969372384937,1458731.5758811,0,0.028969372384937,0
0.029102259414226,1442055.0921744,0,0.029102259414226,0
0.029235146443515,1424827.6492843,0,0.029235146443515,0
0.029368033472803,1406947.4201692,0,0.029368033472803,0
0.029500920502092,1388284.0858326,0,0.029500920502092,0
0.029633807531381,1368670.4790379,0,0.029633807531381,0
0.029766694560669,1347891.7663603,0,0.029766694560669,0
0.029899581589958,1325671.44751,0,0.029899581589958,0
0.030032468619247,1301653.2424038,0,0.030032468619247,0
0.030165355648536,1275377.6695129,0,0.030165355648536,0
0.030298242677824,1246251.7784041,0,0.030298242677824,0
0.030431129707113,1213510.0670955,0,0.030431129707113,0
0.030564016736402,1176164.0704325,0,0.030564016736402,0
0.03069690376569,1132937.4283698,0,0.03069690376569,0
0.030829790794979,1082182.4170997,0,0.030829790794979,0
0.030962677824268,1021772.9544276,0,0.030962677824268,0
0.031095564853556,948968.02925771,0,0.031095564853556,0
0.031228451882845,860238.54794819,0,0.031228451882845,0
0.031361338912134,751050.30701546,0,0.031361338912134,0
0.031494225941423,615597.85376155,0,0.031494225941423,0
0.031627112970711,446493.67164836,0,0.031627112970711,0
0.03176,234454.48680195,0,0.03176,0
