id,pressure,x,y,z
0,623800.23093155,0,0,0
0.0001328870292887,623786.24708072,0,0.0001328870292887,0
0.00026577405857741,623771.09378421,0,0.00026577405857741,0
0.00039866108786611,623753.93971628,0,0.00039866108786611,0
0.00053154811715481,623734.19388189,0,0.00053154811715481,0
0.00066443514644351,623711.43610423,0,0.00066443514644351,0
0.00079732217573222,623685.3676132,0,0.00079732217573222,0
0.00093020920502092,623655.77592208,0,0.00093020920502092,0
0.0010630962343096,623622.50986108,0,0.0010630962343096,0
0.0011959832635983,623585.46183051,0,0.0011959832635983,0
0.001328870292887,623544.5551859,0,0.001328870292887,0
0.0014617573221757,623499.73527121,0,0.0014617573221757,0
0.0015946443514644,623450.96304501,0,0.0015946443514644,0
0.0017275313807531,623398.21054986,0,0.0017275313807531,0
0.0018604184100418,623341.45769195,0,0.0018604184100418,0
0.0019933054393305,623280.68995197,0,0.0019933054393305,0
0.0021261924686192,623215.89675802,0,0.0021261924686192,0
0.0022590794979079,623147.07032907,0,0.0022590794979079,0
0.0023919665271967,623074.20485281,0,0.0023919665271967,0
0.0025248535564854,622997.29590144,0,0.0025248535564854,0
0.0026577405857741,622916.34001626,0,0.0026577405857741,0
0.0027906276150628,622831.33441259,0,0.0027906276150628,0
0.0029235146443515,622742.27677005,0,0.0029235146443515,0
0.0030564016736402,622649.16508357,0,0.0030564016736402,0
0.0031892887029289,622551.99755774,0,0.0031892887029289,0
0.0033221757322176,622450.77253192,0,0.0033221757322176,0
0.0034550627615063,622345.48842741,0,0.0034550627615063,0
0.003587949790795,622236.14371041,0,0.003587949790795,0
0.0037208368200837,622122.73686647,0,0.0037208368200837,0
0.0038537238493724,622005.26638344,0,0.0038537238493724,0
0.0039866108786611,621883.73074092,0,0.0039866108786611,0
0.0041194979079498,621758.12840487,0,0.0041194979079498,0
0.0042523849372385,621628.45782705,0,0.0042523849372385,0
0.0043852719665272,621494.71744885,0,0.0043852719665272,0
0.0045181589958159,621356.90571033,0,0.0045181589958159,0
0.0046510460251046,621215.02106534,0,0.0046510460251046,0
0.0047839330543933,621069.06200458,0,0.0047839330543933,0
0.004916820083682,620919.02708933,0,0.004916820083682,0
0.0050497071129707,620764.91499982,0,0.0050497071129707,0
0.0051825941422594,620606.72460396,0,0.0051825941422594,0
0.0053154811715481,620444.45505456,0,0.0053154811715481,0
0.0054483682008368,620278.10592641,0,0.0054483682008368,0
0.0055812552301255,620107.67740939,0,0.0055812552301255,0
0.0057141422594142,619933.17058042,0,0.0057141422594142,0
0.0058470292887029,619754.58778611,0,0.0058470292887029,0
0.0059799163179916,619571.93318118,0,0.0059799163179916,0
0.0061128033472803,619385.21348593,0,0.0061128033472803,0
0.006245690376569,619194.43905195,0,0.006245690376569,0
0.0063785774058577,618999.62536111,0,0.0063785774058577,0
0.0065114644351464,618800.79513433,0,0.0065114644351464,0
0.0066443514644351,618597.98129783,0,0.0066443514644351,0
0.0067772384937238,618391.23115562,0,0.0067772384937238,0
0.0069101255230126,618180.61225865,0,0.0069101255230126,0
0.0070430125523013,617966.22066046,0,0.0070430125523013,0
0.00717589958159,617748.19252973,0,0.00717589958159,0
0.0073087866108787,617526.72048448,0,0.0073087866108787,0
0.0074416736401674,617302.07656779,0,0.0074416736401674,0
0.0075745606694561,617074.6445652,0,0.0075745606694561,0
0.0077074476987448,616844.96546202,0,0.0077074476987448,0
0.0078403347280335,616613.80138273,0,0.0078403347280335,0
0.0079732217573222,616382.22552581,0,0.0079732217573222,0
0.0081061087866109,616150.24849849,0,0.0081061087866109,0
0.0082389958158996,615916.89690479,0,0.0082389958158996,0
0.0083718828451883,615681.48126381,0,0.0083718828451883,0
0.008504769874477,615443.51294674,0,0.008504769874477,0
0.0086376569037657,615202.64540976,0,0.0086376569037657,0
0.0087705439330544,614958.63261678,0,0.0087705439330544,0
0.0089034309623431,614711.29962402,0,0.0089034309623431,0
0.0090363179916318,614460.52176885,0,0.0090363179916318,0
0.0091692050209205,614206.20994612,0,0.0091692050209205,0
0.0093020920502092,613948.30019126,0,0.0093020920502092,0
0.0094349790794979,613686.74631021,0,0.0094349790794979,0
0.0095678661087866,613421.51466499,0,0.0095678661087866,0
0.0097007531380753,613152.58048404,0,0.0097007531380753,0
0.009833640167364,612879.92525132,0,0.009833640167364,0
0.0099665271966527,612603.53485816,0,0.0099665271966527,0
0.010099414225941,612323.39829458,0,0.010099414225941,0
0.01023230125523,612039.50672156,0,0.01023230125523,0
0.010365188284519,611751.85281237,0,0.010365188284519,0
0.010498075313808,611460.43028307,0,0.010498075313808,0
0.010630962343096,611165.23355554,0,0.010630962343096,0
0.010763849372385,610866.25751232,0,0.010763849372385,0
0.010896736401674,610563.49731361,0,0.010896736401674,0
0.011029623430962,610256.94825437,0,0.011029623430962,0
0.011162510460251,609946.60564421,0,0.011162510460251,0
0.01129539748954,609632.46469573,0,0.01129539748954,0
0.011428284518828,609314.52040771,0,0.011428284518828,0
0.011561171548117,608992.76742918,0,0.011561171548117,0
0.011694058577406,608667.19988796,0,0.011694058577406,0
0.011826945606695,608337.81116309,0,0.011826945606695,0
0.011959832635983,608004.59357357,0,0.011959832635983,0
0.012092719665272,607667.53794619,0,0.012092719665272,0
0.012225606694561,607326.63301006,0,0.012225606694561,0
0.012358493723849,606981.864545,0,0.012358493723849,0
0.012491380753138,606633.21418118,0,0.012491380753138,0
0.012624267782427,606280.65770506,0,0.012624267782427,0
0.012757154811715,605924.16266757,0,0.012757154811715,0
0.012890041841004,605563.68500596,0,0.012890041841004,0
0.013022928870293,605199.16427186,0,0.013022928870293,0
0.013155815899582,604830.51689021,0,0.013155815899582,0
0.01328870292887,604457.62663596,0,0.01328870292887,0
0.013421589958159,604080.33117997,0,0.013421589958159,0
0.013554476987448,603698.40308159,0,0.013554476987448,0
0.013687364016736,603311.52293556,0,0.013687364016736,0
0.013820251046025,602919.24143473,0,0.013820251046025,0
0.013953138075314,602520.9257733,0,0.013953138075314,0
0.014086025104603,602115.68392723,0,0.014086025104603,0
0.014218912133891,601702.25767998,0,0.014218912133891,0
0.01435179916318,601278.87149352,0,0.01435179916318,0
0.014484686192469,600843.01899943,0,0.014484686192469,0
0.014617573221757,600391.1613633,0,0.014617573221757,0
0.014750460251046,599918.30114874,0,0.014750460251046,0
0.014883347280335,599417.38029542,0,0.014883347280335,0
0.015016234309623,598878.42961715,0,0.015016234309623,0
0.015149121338912,598287.36726595,0,0.015149121338912,0
0.015282008368201,597624.30128275,0,0.015282008368201,0
0.01541489539749,596861.1315634,0,0.01541489539749,0
0.015547782426778,595958.16210198,0,0.015547782426778,0
0.015680669456067,594859.3150505,0,0.015680669456067,0
0.015813556485356,593485.36957225,0,0.015813556485356,0
0.015946443514644,591724.41043044,0,0.015946443514644,0
0.016079330543933,589487.80401438,0,0.016079330543933,0
0.016212217573222,586875.42415797,0,0.016212217573222,0
0.01634510460251,583963.3210026,0,0.01634510460251,0
0.016477991631799,580809.34357863,0,0.016477991631799,0
0.016610878661088,577457.43325481,0,0.016610878661088,0
0.016743765690377,573940.90205767,0,0.016743765690377,0
0.016876652719665,570284.93567083,0,0.016876652719665,0
0.017009539748954,566508.50424908,0,0.017009539748954,0
0.017142426778243,562625.82090853,0,0.017142426778243,0
0.017275313807531,558647.45470973,0,0.017275313807531,0
0.01740820083682,554581.1797131,0,0.01740820083682,0
0.017541087866109,550432.62241054,0,0.017541087866109,0
0.017673974895397,546205.75511366,0,0.017673974895397,0
0.017806861924686,541903.27163288,0,0.017806861924686,0
0.017939748953975,537526.872991,0,0.017939748953975,0
0.018072635983264,533077.4843531,0,0.018072635983264,0
0.018205523012552,528555.41934245,0,0.018205523012552,0
0.018338410041841,523960.50408406,0,0.018338410041841,0
0.01847129707113,519292.17039399,0,0.01847129707113,0
0.018604184100418,514549.52530112,0,0.018604184100418,0
0.018737071129707,509731.4023847,0,0.018737071129707,0
0.018869958158996,504836.39911314,0,0.018869958158996,0
0.019002845188285,499862.90338178,0,0.019002845188285,0
0.019135732217573,494809.11169805,0,0.019135732217573,0
0.019268619246862,489673.04089796,0,0.019268619246862,0
0.019401506276151,484452.53485716,0,0.019401506276151,0
0.019534393305439,479145.2673523,0,0.019534393305439,0
0.019667280334728,473748.74201381,0,0.019667280334728,0
0.019800167364017,468260.2901732,0,0.019800167364017,0
0.019933054393305,462677.06733836,0,0.019933054393305,0
0.020065941422594,456996.04902504,0,0.020065941422594,0
0.020198828451883,451214.02673213,0,0.020198828451883,0
0.020331715481172,445327.60497871,0,0.020331715481172,0
0.02046460251046,439333.20053241,0,0.02046460251046,0
0.020597489539749,433227.04526895,0,0.020597489539749,0
0.020730376569038,427005.19453479,0,0.020730376569038,0
0.020863263598326,420663.54347202,0,0.020863263598326,0
0.020996150627615,414197.85455,0,0.020996150627615,0
0.021129037656904,407603.80058859,0,0.021129037656904,0
0.021261924686192,400877.02892799,0,0.021261924686192,0
0.021394811715481,394013.25419587,0,0.021394811715481,0
0.02152769874477,387008.3894677,0,0.02152769874477,0
0.021660585774059,379858.72867022,0,0.021660585774059,0
0.021793472803347,372561.19704314,0,0.021793472803347,0
0.021926359832636,365113.6916095,0,0.021926359832636,0
0.022059246861925,357515.54023672,0,0.022059246861925,0
0.022192133891213,349768.11640861,0,0.022192133891213,0
0.022325020920502,341875.65778844,0,0.022325020920502,0
0.022457907949791,333846.35066806,0,0.022457907949791,0
0.022590794979079,325693.76025093,0,0.022590794979079,0
0.022723682008368,317438.70935183,0,0.022723682008368,0
0.022856569037657,309111.73664516,0,0.022856569037657,0
0.022989456066946,300756.30138642,0,0.022989456066946,0
0.023122343096234,292432.94610192,0,0.023122343096234,0
0.023255230125523,284224.68383207,0,0.023255230125523,0
0.023388117154812,276243.94408024,0,0.023388117154812,0
0.0235210041841,268641.49390532,0,0.0235210041841,0
0.023653891213389,261617.85036329,0,0.023653891213389,0
0.023786778242678,255437.8216954,0,0.023786778242678,0
0.023919665271967,250448.96384056,0,0.023919665271967,0
0.024052552301255,246442.0431251,0,0.024052552301255,0
0.024185439330544,243125.03898519,0,0.024185439330544,0
0.024318326359833,240291.36411568,0,0.024318326359833,0
0.024451213389121,237794.86146848,0,0.024451213389121,0
0.02458410041841,235532.11038565,0,0.02458410041841,0
0.024716987447699,233429.90818203,0,0.024716987447699,0
0.024849874476987,231436.41497574,0,0.024849874476987,0
0.024982761506276,229514.89069144,0,0.024982761506276,0
0.025115648535565,227639.26591982,0,0.025115648535565,0
0.025248535564854,225791.00992227,0,0.025248535564854,0
0.025381422594142,223956.91601119,0,0.025381422594142,0
0.025514309623431,222127.53563916,0,0.025514309623431,0
0.02564719665272,220296.07115917,0,0.02564719665272,0
0.025780083682008,218457.59285235,0,0.025780083682008,0
0.025912970711297,216608.48517584,0,0.025912970711297,0
0.026045857740586,214746.05502092,0,0.026045857740586,0
0.026178744769874,212868.25445824,0,0.026178744769874,0
0.026311631799163,210973.48436909,0,0.026311631799163,0
0.026444518828452,209060.45520459,0,0.026444518828452,0
0.026577405857741,207128.08807429,0,0.026577405857741,0
0.026710292887029,205175.44428495,0,0.026710292887029,0
0.026843179916318,203201.67492757,0,0.026843179916318,0
0.026976066945607,201205.98456757,0,0.026976066945607,0
0.027108953974895,199187.60482898,0,0.027108953974895,0
0.027241841004184,197145.77488912,0,0.027241841004184,0
0.027374728033473,195079.72676499,0,0.027374728033473,0
0.027507615062762,192988.67388211,0,0.027507615062762,0
0.02764050209205,190871.80184524,0,0.02764050209205,0
0.027773389121339,188728.26063069,0,0.027773389121339,0
0.027906276150628,186557.15762959,0,0.027906276150628,0
0.028039163179916,184357.55111536,0,0.028039163179916,0
0.028172050209205,182128.44380682,0,0.028172050209205,0
0.028304937238494,179868.77626173,0,0.028304937238494,0
0.028437824267782,177577.41987454,0,0.028437824267782,0
0.028570711297071,175253.16927141,0,0.028570711297071,0
0.02870359832636,172894.7339002,0,0.02870359832636,0
0.028836485355649,170500.72860426,0,0.028836485355649,0
0.028969372384937,168069.66294882,0,0.028969372384937,0
0.029102259414226,165599.92903658,0,0.029102259414226,0
0.029235146443515,163089.78750577,0,0.029235146443515,0
0.029368033472803,160537.35134588,0,0.029368033472803,0
0.029500920502092,157940.56709451,0,0.029500920502092,0
0.029633807531381,155297.19288774,0,0.029633807531381,0
0.029766694560669,152604.77272575,0,0.029766694560669,0
0.029899581589958,149860.60617959,0,0.029899581589958,0
0.030032468619247,147061.71260159,0,0.030032468619247,0
0.030165355648536,144204.78870711,0,0.030165355648536,0
0.030298242677824,141286.15816611,0,0.030298242677824,0
0.030431129707113,138301.71158031,0,0.030431129707113,0
0.030564016736402,135246.8349282,0,0.030564016736402,0
0.03069690376569,132116.32424995,0,0.03069690376569,0
0.030829790794979,128904.28404109,0,0.030829790794979,0
0.030962677824268,125604.00657932,0,0.030962677824268,0
0.031095564853556,122207.82930755,0,0.031095564853556,0
0.031228451882845,118706.96758758,0,0.031228451882845,0
0.031361338912134,115091.32086703,0,0.031361338912134,0
0.031494225941423,111349.25196843,0,0.031494225941423,0
0.031627112970711,107467.34245764,0,0.031627112970711,0
0.03176,103430.13291568,0,0.03176,0
