id,pressure,x,y,z
0,4660087.2260215,0,0,0
0.00026689075630252,4659509.5029975,0,0.00026689075630252,0
0.00053378151260504,4658901.3589737,0,0.00053378151260504,0
0.00080067226890756,4658239.064533,0,0.00080067226890756,0
0.0010675630252101,4657503.9763906,0,0.0010675630252101,0
0.0013344537815126,4656681.277222,0,0.0013344537815126,0
0.0016013445378151,4655758.9755172,0,0.0016013445378151,0
0.0018682352941176,4654727.0977717,0,0.0018682352941176,0
0.0021351260504202,4653577.0183367,0,0.0021351260504202,0
0.0024020168067227,4652300.8815682,0,0.0024020168067227,0
0.0026689075630252,4650891.0771643,0,0.0026689075630252,0
0.0029357983193277,4649339.7331825,0,0.0029357983193277,0
0.0032026890756303,4647638.1924289,0,0.0032026890756303,0
0.0034695798319328,4645776.4367937,0,0.0034695798319328,0
0.0037364705882353,4643742.4205945,0,0.0037364705882353,0
0.0040033613445378,4641521.2678374,0,0.0040033613445378,0
0.0042702521008403,4639094.279116,0,0.0042702521008403,0
0.0045371428571429,4636437.680999,0,0.0045371428571429,0
0.0048040336134454,4633521.0333556,0,0.0048040336134454,0
0.0050709243697479,4630305.1869433,0,0.0050709243697479,0
0.0053378151260504,4626739.6531825,0,0.0053378151260504,0
0.0056047058823529,4622759.2082959,0,0.0056047058823529,0
0.0058715966386555,4618279.5022146,0,0.0058715966386555,0
0.006138487394958,4613191.3753266,0,0.006138487394958,0
0.0064053781512605,4607353.4986973,0,0.0064053781512605,0
0.006672268907563,4600582.8398705,0,0.006672268907563,0
0.0069391596638655,4592642.3090188,0,0.0069391596638655,0
0.0072060504201681,4583224.7489651,0,0.0072060504201681,0
0.0074729411764706,4571932.1843116,0,0.0074729411764706,0
0.0077398319327731,4558248.9224337,0,0.0077398319327731,0
0.0080067226890756,4541506.8287092,0,0.0080067226890756,0
0.0082736134453782,4521173.437337,0,0.0082736134453782,0
0.0085405042016807,4497667.4587552,0,0.0085405042016807,0
0.0088073949579832,4471324.7848164,0,0.0088073949579832,0
0.0090742857142857,4442413.7403771,0,0.0090742857142857,0
0.0093411764705882,4411147.7007831,0,0.0093411764705882,0
0.0096080672268908,4377695.5175825,0,0.0096080672268908,0
0.0098749579831933,4342190.1915168,0,0.0098749579831933,0
0.010141848739496,4304736.1599499,0,0.010141848739496,0
0.010408739495798,4265415.5091356,0,0.010408739495798,0
0.010675630252101,4224293.3777599,0,0.010675630252101,0
0.010942521008403,4181422.7851655,0,0.010942521008403,0
0.011209411764706,4136849.0941882,0,0.011209411764706,0
0.011476302521008,4090614.3035699,0,0.011476302521008,0
0.011743193277311,4042761.3577713,0,0.011743193277311,0
0.012010084033613,3993338.6622732,0,0.012010084033613,0
0.012276974789916,3942404.999991,0,0.012276974789916,0
0.012543865546218,3890035.059322,0,0.012543865546218,0
0.012810756302521,3836325.8069271,0,0.012810756302521,0
0.013077647058824,3781403.9691518,0,0.013077647058824,0
0.013344537815126,3725434.9257628,0,0.013344537815126,0
0.013611428571429,3668633.3693487,0,0.013611428571429,0
0.013878319327731,3611276.1444365,0,0.013878319327731,0
0.014145210084034,3553717.7534008,0,0.014145210084034,0
0.014412100840336,3496409.103068,0,0.014412100840336,0
0.014678991596639,3439920.1681869,0,0.014678991596639,0
0.014945882352941,3384967.3675348,0,0.014945882352941,0
0.015212773109244,3332446.5875933,0,0.015212773109244,0
0.015479663865546,3283472.9503606,0,0.015479663865546,0
0.015746554621849,3239428.6100685,0,0.015746554621849,0
0.016013445378151,3202020.2771205,0,0.016013445378151,0
0.016280336134454,3170286.2627591,0,0.016280336134454,0
0.016547226890756,3142840.8273874,0,0.016547226890756,0
0.016814117647059,3118617.8765478,0,0.016814117647059,0
0.017081008403361,3096797.258332,0,0.017081008403361,0
0.017347899159664,3076747.7269434,0,0.017347899159664,0
0.017614789915966,3057983.113775,0,0.017614789915966,0
0.017881680672269,3040128.643991,0,0.017881680672269,0
0.018148571428571,3022895.0467622,0,0.018148571428571,0
0.018415462184874,3006058.6522295,0,0.018415462184874,0
0.018682352941176,2989446.0864667,0,0.018682352941176,0
0.018949243697479,2972922.4967364,0,0.018949243697479,0
0.019216134453782,2956382.4857529,0,0.019216134453782,0
0.019483025210084,2939743.1227604,0,0.019483025210084,0
0.019749915966387,2922938.5442407,0,0.019749915966387,0
0.020016806722689,2905915.7680988,0,0.020016806722689,0
0.020283697478992,2888631.4300041,0,0.020283697478992,0
0.020550588235294,2871049.2150981,0,0.020550588235294,0
0.020817478991597,2853137.807028,0,0.020817478991597,0
0.021084369747899,2834869.2126371,0,0.021084369747899,0
0.021351260504202,2816217.347175,0,0.021351260504202,0
0.021618151260504,2797156.7834594,0,0.021618151260504,0
0.021885042016807,2777661.5803303,0,0.021885042016807,0
0.022151932773109,2757704.1118457,0,0.022151932773109,0
0.022418823529412,2737253.8194419,0,0.022418823529412,0
0.022685714285714,2716275.8048041,0,0.022685714285714,0
0.022952605042017,2694729.1712295,0,0.022952605042017,0
0.023219495798319,2672565.0051865,0,0.023219495798319,0
0.023486386554622,2649723.8665687,0,0.023486386554622,0
0.023753277310924,2626132.6243299,0,0.023753277310924,0
0.024020168067227,2601700.433845,0,0.024020168067227,0
0.024287058823529,2576396.8829592,0,0.024287058823529,0
0.024553949579832,2550259.2365417,0,0.024553949579832,0
0.024820840336134,2523309.5048539,0,0.024820840336134,0
0.025087731092437,2495557.3693933,0,0.025087731092437,0
0.025354621848739,2467002.4061604,0,0.025354621848739,0
0.025621512605042,2437635.7207676,0,0.025621512605042,0
0.025888403361345,2407441.119843,0,0.025888403361345,0
0.026155294117647,2376395.9129261,0,0.026155294117647,0
0.02642218487395,2344471.4155299,0,0.02642218487395,0
0.026689075630252,2311633.2057197,0,0.026689075630252,0
0.026955966386555,2277841.172271,0,0.026955966386555,0
0.027222857142857,2243049.3813182,0,0.027222857142857,0
0.02748974789916,2207205.7797571,0,0.02748974789916,0
0.027756638655462,2170251.7470726,0,0.027756638655462,0
0.028023529411765,2132121.5024679,0,0.028023529411765,0
0.028290420168067,2092741.3710983,0,0.028290420168067,0
0.02855731092437,2052028.9119671,0,0.02855731092437,0
0.028824201680672,2009891.9109576,0,0.028824201680672,0
0.029091092436975,1966227.246167,0,0.029091092436975,0
0.029357983193277,1920919.6401461,0,0.029357983193277,0
0.02962487394958,1873840.3263154,0,0.02962487394958,0
0.029891764705882,1824845.6768821,0,0.029891764705882,0
0.030158655462185,1773775.8701627,0,0.030158655462185,0
0.030425546218487,1720453.7208361,0,0.030425546218487,0
0.03069243697479,1664683.8637883,0,0.03069243697479,0
0.030959327731092,1606252.580175,0,0.030959327731092,0
0.031226218487395,1544928.696527,0,0.031226218487395,0
0.031493109243697,1480466.1935568,0,0.031493109243697,0
0.03176,1412609.4590162,0,0.03176,0
