id,pressure,x,y,z
0,234644.88122246,0,0,0
0.0001328870292887,234640.43895534,0,0.0001328870292887,0
0.00026577405857741,234635.62519529,0,0.00026577405857741,0
0.00039866108786611,234630.17586584,0,0.00039866108786611,0
0.00053154811715481,234623.90324168,0,0.00053154811715481,0
0.00066443514644351,234616.67386646,0,0.00066443514644351,0
0.00079732217573222,234608.3928561,0,0.00079732217573222,0
0.00093020920502092,234598.99274119,0,0.00093020920502092,0
0.0010630962343096,234588.42553591,0,0.0010630962343096,0
0.0011959832635983,234576.65710046,0,0.0011959832635983,0
0.001328870292887,234563.66313375,0,0.001328870292887,0
0.0014617573221757,234549.42632492,0,0.0014617573221757,0
0.0015946443514644,234533.93432866,0,0.0015946443514644,0
0.0017275313807531,234517.17832599,0,0.0017275313807531,0
0.0018604184100418,234499.15200121,0,0.0018604184100418,0
0.0019933054393305,234479.85081485,0,0.0019933054393305,0
0.0021261924686192,234459.27148671,0,0.0021261924686192,0
0.0022590794979079,234437.41162851,0,0.0022590794979079,0
0.0023919665271967,234414.26948276,0,0.0023919665271967,0
0.0025248535564854,234389.84373716,0,0.0025248535564854,0
0.0026577405857741,234364.13339265,0,0.0026577405857741,0
0.0027906276150628,234337.13766971,0,0.0027906276150628,0
0.0029235146443515,234308.85594172,0,0.0029235146443515,0
0.0030564016736402,234279.28768767,0,0.0030564016736402,0
0.0031892887029289,234248.43245859,0,0.0031892887029289,0
0.0033221757322176,234216.28985381,0,0.0033221757322176,0
0.0034550627615063,234182.85950415,0,0.0034550627615063,0
0.003587949790795,234148.14106021,0,0.003587949790795,0
0.0037208368200837,234112.13418426,0,0.0037208368200837,0
0.0038537238493724,234074.8385448,0,0.0038537238493724,0
0.0039866108786611,234036.25381328,0,0.0039866108786611,0
0.0041194979079498,233996.37966239,0,0.0041194979079498,0
0.0042523849372385,233955.21576587,0,0.0042523849372385,0
0.0043852719665272,233912.76179978,0,0.0043852719665272,0
0.0045181589958159,233869.01744532,0,0.0045181589958159,0
0.0046510460251046,233823.98239373,0,0.0046510460251046,0
0.0047839330543933,233777.65635353,0,0.0047839330543933,0
0.004916820083682,233730.03906126,0,0.004916820083682,0
0.0050497071129707,233681.13029682,0,0.0050497071129707,0
0.0051825941422594,233630.92990526,0,0.0051825941422594,0
0.0053154811715481,233579.43782758,0,0.0053154811715481,0
0.0054483682008368,233526.65414419,0,0.0054483682008368,0
0.0055812552301255,233472.57913604,0,0.0055812552301255,0
0.0057141422594142,233417.21337083,0,0.0057141422594142,0
0.0058470292887029,233360.55782416,0,0.0058470292887029,0
0.0059799163179916,233302.61405011,0,0.0059799163179916,0
0.0061128033472803,233243.38442113,0,0.0061128033472803,0
0.006245690376569,233182.87246557,0,0.006245690376569,0
0.0063785774058577,233121.08334247,0,0.0063785774058577,0
0.0065114644351464,233058.02450946,0,0.0065114644351464,0
0.0066443514644351,232993.70666226,0,0.0066443514644351,0
0.0067772384937238,232928.14505623,0,0.0067772384937238,0
0.0069101255230126,232861.36136546,0,0.0069101255230126,0
0.0070430125523013,232793.38629765,0,0.0070430125523013,0
0.00717589958159,232724.26327252,0,0.00717589958159,0
0.0073087866108787,232654.05359596,0,0.0073087866108787,0
0.0074416736401674,232582.84373805,0,0.0074416736401674,0
0.0075745606694561,232510.75557081,0,0.0075745606694561,0
0.0077074476987448,232437.96076864,0,0.0077074476987448,0
0.0078403347280335,232364.70106452,0,0.0078403347280335,0
0.0079732217573222,232291.31674248,0,0.0079732217573222,0
0.0081061087866109,232217.81133879,0,0.0081061087866109,0
0.0082389958158996,232143.8765759,0,0.0082389958158996,0
0.0083718828451883,232069.29417341,0,0.0083718828451883,0
0.008504769874477,231993.9095217,0,0.008504769874477,0
0.0086376569037657,231917.61305546,0,0.0086376569037657,0
0.0087705439330544,231840.32707528,0,0.0087705439330544,0
0.0089034309623431,231761.99642386,0,0.0089034309623431,0
0.0090363179916318,231682.58188926,0,0.0090363179916318,0
0.0091692050209205,231602.05553773,0,0.0091692050209205,0
0.0093020920502092,231520.39741155,0,0.0093020920502092,0
0.0094349790794979,231437.5931927,0,0.0094349790794979,0
0.0095678661087866,231353.63254984,0,0.0095678661087866,0
0.0097007531380753,231268.50796865,0,0.0097007531380753,0
0.009833640167364,231182.21392404,0,0.009833640167364,0
0.0099665271966527,231094.74629434,0,0.0099665271966527,0
0.010099414225941,231006.10194636,0,0.010099414225941,0
0.01023230125523,230916.27844134,0,0.01023230125523,0
0.010365188284519,230825.27382614,0,0.010365188284519,0
0.010498075313808,230733.08648445,0,0.010498075313808,0
0.010630962343096,230639.71503004,0,0.010630962343096,0
0.010763849372385,230545.15822914,0,0.010763849372385,0
0.010896736401674,230449.4149425,0,0.010896736401674,0
0.011029623430962,230352.48408032,0,0.011029623430962,0
0.011162510460251,230254.36456433,0,0.011162510460251,0
0.01129539748954,230155.0552927,0,0.01129539748954,0
0.011428284518828,230054.55510345,0,0.011428284518828,0
0.011561171548117,229952.86273181,0,0.011561171548117,0
0.011694058577406,229849.97675666,0,0.011694058577406,0
0.011826945606695,229745.8955294,0,0.011826945606695,0
0.011959832635983,229640.61707668,0,0.011959832635983,0
0.012092719665272,229534.13896534,0,0.012092719665272,0
0.012225606694561,229426.45811325,0,0.012225606694561,0
0.012358493723849,229317.57052316,0,0.012358493723849,0
0.012491380753138,229207.47090756,0,0.012491380753138,0
0.012624267782427,229096.1521592,0,0.012624267782427,0
0.012757154811715,228983.6046035,0,0.012757154811715,0
0.012890041841004,228869.81494253,0,0.012890041841004,0
0.013022928870293,228754.76476325,0,0.013022928870293,0
0.013155815899582,228638.42843008,0,0.013155815899582,0
0.01328870292887,228520.77010742,0,0.01328870292887,0
0.013421589958159,228401.73955304,0,0.013421589958159,0
0.013554476987448,228281.26617478,0,0.013554476987448,0
0.013687364016736,228159.25063366,0,0.013687364016736,0
0.013820251046025,228035.55298029,0,0.013820251046025,0
0.013953138075314,227909.97589352,0,0.013953138075314,0
0.014086025104603,227782.24099929,0,0.014086025104603,0
0.014218912133891,227651.95541294,0,0.014218912133891,0
0.01435179916318,227518.56446897,0,0.01435179916318,0
0.014484686192469,227381.28493606,0,0.014484686192469,0
0.014617573221757,227239.01066118,0,0.014617573221757,0
0.014750460251046,227090.17926101,0,0.014750460251046,0
0.014883347280335,226932.58378045,0,0.014883347280335,0
0.015016234309623,226763.10659986,0,0.015016234309623,0
0.015149121338912,226577.34349485,0,0.015149121338912,0
0.015282008368201,226369.07250292,0,0.015282008368201,0
0.01541489539749,226129.50353363,0,0.01541489539749,0
0.015547782426778,225846.21821409,0,0.015547782426778,0
0.015680669456067,225501.67210235,0,0.015680669456067,0
0.015813556485356,225071.07862146,0,0.015813556485356,0
0.015946443514644,224519.41952478,0,0.015946443514644,0
0.016079330543933,223819.01085334,0,0.016079330543933,0
0.016212217573222,223001.37707763,0,0.016212217573222,0
0.01634510460251,222090.55787323,0,0.01634510460251,0
0.016477991631799,221104.8732735,0,0.016477991631799,0
0.016610878661088,220058.27224167,0,0.016610878661088,0
0.016743765690377,218961.36294317,0,0.016743765690377,0
0.016876652719665,217822.19981407,0,0.016876652719665,0
0.017009539748954,216646.88480186,0,0.017009539748954,0
0.017142426778243,215440.02661752,0,0.017142426778243,0
0.017275313807531,214205.09149571,0,0.017275313807531,0
0.01740820083682,212944.67105795,0,0.01740820083682,0
0.017541087866109,211660.68683527,0,0.017541087866109,0
0.017673974895397,210354.54639358,0,0.017673974895397,0
0.017806861924686,209027.26247909,0,0.017806861924686,0
0.017939748953975,207679.54390778,0,0.017939748953975,0
0.018072635983264,206311.86486433,0,0.018072635983264,0
0.018205523012552,204924.51770366,0,0.018205523012552,0
0.018338410041841,203517.65314671,0,0.018338410041841,0
0.01847129707113,202091.31084497,0,0.01847129707113,0
0.018604184100418,200645.4425873,0,0.018604184100418,0
0.018737071129707,199179.92988871,0,0.018737071129707,0
0.018869958158996,197694.59729294,0,0.018869958158996,0
0.019002845188285,196189.22241081,0,0.019002845188285,0
0.019135732217573,194663.54348147,0,0.019135732217573,0
0.019268619246862,193117.26506594,0,0.019268619246862,0
0.019401506276151,191550.06234982,0,0.019401506276151,0
0.019534393305439,189961.58443477,0,0.019534393305439,0
0.019667280334728,188351.4569286,0,0.019667280334728,0
0.019800167364017,186719.28409749,0,0.019800167364017,0
0.019933054393305,185064.65081698,0,0.019933054393305,0
0.020065941422594,183387.12454854,0,0.020065941422594,0
0.020198828451883,181686.25757641,0,0.020198828451883,0
0.020331715481172,179961.5897635,0,0.020331715481172,0
0.02046460251046,178212.65212875,0,0.02046460251046,0
0.020597489539749,176438.9716138,0,0.020597489539749,0
0.020730376569038,174640.07749776,0,0.020730376569038,0
0.020863263598326,172815.51004376,0,0.020863263598326,0
0.020996150627615,170964.83212521,0,0.020996150627615,0
0.021129037656904,169087.64479735,0,0.021129037656904,0
0.021261924686192,167183.60806374,0,0.021261924686192,0
0.021394811715481,165252.46845702,0,0.021394811715481,0
0.02152769874477,163294.09553458,0,0.02152769874477,0
0.021660585774059,161308.5300131,0,0.021660585774059,0
0.021793472803347,159296.04707386,0,0.021793472803347,0
0.021926359832636,157257.23941645,0,0.021926359832636,0
0.022059246861925,155193.12599009,0,0.022059246861925,0
0.022192133891213,153105.29407818,0,0.022192133891213,0
0.022325020920502,150996.08466631,0,0.022325020920502,0
0.022457907949791,148868.83393195,0,0.022457907949791,0
0.022590794979079,146728.18744278,0,0.022590794979079,0
0.022723682008368,144580.50847918,0,0.022723682008368,0
0.022856569037657,142434.40811175,0,0.022856569037657,0
0.022989456066946,140301.43266018,0,0.022989456066946,0
0.023122343096234,138196.95443957,0,0.023122343096234,0
0.023255230125523,136141.32491286,0,0.023255230125523,0
0.023388117154812,134161.36634875,0,0.023388117154812,0
0.0235210041841,132292.29991528,0,0.0235210041841,0
0.023653891213389,130580.23623312,0,0.023653891213389,0
0.023786778242678,129085.39062986,0,0.023786778242678,0
0.023919665271967,127886.23213269,0,0.023919665271967,0
0.024052552301255,126930.27850994,0,0.024052552301255,0
0.024185439330544,126146.13970835,0,0.024185439330544,0
0.024318326359833,125483.24047777,0,0.024318326359833,0
0.024451213389121,124905.75195989,0,0.024451213389121,0
0.02458410041841,124388.29204226,0,0.02458410041841,0
0.024716987447699,123912.87912999,0,0.024716987447699,0
0.024849874476987,123466.77403997,0,0.024849874476987,0
0.024982761506276,123040.95114164,0,0.024982761506276,0
0.025115648535565,122629.0153039,0,0.025115648535565,0
0.025248535564854,122226.43467227,0,0.025248535564854,0
0.025381422594142,121829.99718781,0,0.025381422594142,0
0.025514309623431,121437.42560582,0,0.025514309623431,0
0.02564719665272,121047.10479412,0,0.02564719665272,0
0.025780083682008,120657.88856742,0,0.025780083682008,0
0.025912970711297,120268.96286205,0,0.025912970711297,0
0.026045857740586,119879.74881954,0,0.026045857740586,0
0.026178744769874,119489.83413924,0,0.026178744769874,0
0.026311631799163,119098.92445478,0,0.026311631799163,0
0.026444518828452,118706.80889384,0,0.026444518828452,0
0.026577405857741,118313.3356841,0,0.026577405857741,0
0.026710292887029,117918.39487491,0,0.026710292887029,0
0.026843179916318,117521.90609897,0,0.026843179916318,0
0.026976066945607,117123.80990372,0,0.026976066945607,0
0.027108953974895,116724.06161105,0,0.027108953974895,0
0.027241841004184,116322.62696771,0,0.027241841004184,0
0.027374728033473,115919.47906392,0,0.027374728033473,0
0.027507615062762,115514.59615013,0,0.027507615062762,0
0.02764050209205,115107.96008987,0,0.02764050209205,0
0.027773389121339,114699.55526291,0,0.027773389121339,0
0.027906276150628,114289.36778736,0,0.027906276150628,0
0.028039163179916,113877.38496732,0,0.028039163179916,0
0.028172050209205,113463.59490027,0,0.028172050209205,0
0.028304937238494,113047.98619716,0,0.028304937238494,0
0.028437824267782,112630.54778202,0,0.028437824267782,0
0.028570711297071,112211.26874732,0,0.028570711297071,0
0.02870359832636,111790.1382482,0,0.02870359832636,0
0.028836485355649,111367.14542316,0,0.028836485355649,0
0.028969372384937,110942.27933216,0,0.028969372384937,0
0.029102259414226,110515.52890512,0,0.029102259414226,0
0.029235146443515,110086.88289522,0,0.029235146443515,0
0.029368033472803,109656.3298317,0,0.029368033472803,0
0.029500920502092,109223.8579672,0,0.029500920502092,0
0.029633807531381,108789.45521379,0,0.029633807531381,0
0.029766694560669,108353.10906074,0,0.029766694560669,0
0.029899581589958,107914.80646472,0,0.029899581589958,0
0.030032468619247,107474.5337001,0,0.030032468619247,0
0.030165355648536,107032.27615232,0,0.030165355648536,0
0.030298242677824,106588.0180305,0,0.030298242677824,0
0.030431129707113,106141.74196608,0,0.030431129707113,0
0.030564016736402,105693.42845087,0,0.030564016736402,0
0.03069690376569,105243.05504912,0,0.03069690376569,0
0.030829790794979,104790.5952914,0,0.030829790794979,0
0.030962677824268,104336.0171211,0,0.030962677824268,0
0.031095564853556,103879.28071135,0,0.031095564853556,0
0.031228451882845,103420.33539661,0,0.031228451882845,0
0.031361338912134,102959.11535874,0,0.031361338912134,0
0.031494225941423,102495.53356139,0,0.031494225941423,0
0.031627112970711,102029.47322052,0,0.031627112970711,0
0.03176,101560.77580952,0,0.03176,0
