id,pressure,x,y,z
0,142440.88753403,0,0,0
0.0001328870292887,142439.22530443,0,0.0001328870292887,0
0.00026577405857741,142437.42407271,0,0.00026577405857741,0
0.00039866108786611,142435.38503464,0,0.00039866108786611,0
0.00053154811715481,142433.03795937,0,0.00053154811715481,0
0.00066443514644351,142430.33292653,0,0.00066443514644351,0
0.00079732217573222,142427.2344527,0,0.00079732217573222,0
0.00093020920502092,142423.71731645,0,0.00093020920502092,0
0.0010630962343096,142419.76359071,0,0.0010630962343096,0
0.0011959832635983,142415.36053331,0,0.0011959832635983,0
0.001328870292887,142410.49908759,0,0.001328870292887,0
0.0014617573221757,142405.17281652,0,0.0014617573221757,0
0.0015946443514644,142399.3771452,0,0.0015946443514644,0
0.0017275313807531,142393.10882229,0,0.0017275313807531,0
0.0018604184100418,142386.36553728,0,0.0018604184100418,0
0.0019933054393305,142379.14564839,0,0.0019933054393305,0
0.0021261924686192,142371.44798922,0,0.0021261924686192,0
0.0022590794979079,142363.27173124,0,0.0022590794979079,0
0.0023919665271967,142354.61628612,0,0.0023919665271967,0
0.0025248535564854,142345.48123626,0,0.0025248535564854,0
0.0026577405857741,142335.86628549,0,0.0026577405857741,0
0.0027906276150628,142325.77122392,0,0.0027906276150628,0
0.0029235146443515,142315.19590309,0,0.0029235146443515,0
0.0030564016736402,142304.14021825,0,0.0030564016736402,0
0.0031892887029289,142292.6040958,0,0.0031892887029289,0
0.0033221757322176,142280.58748443,0,0.0033221757322176,0
0.0034550627615063,142268.09034882,0,0.0034550627615063,0
0.003587949790795,142255.11266528,0,0.003587949790795,0
0.0037208368200837,142241.65441871,0,0.0037208368200837,0
0.0038537238493724,142227.71560058,0,0.0038537238493724,0
0.0039866108786611,142213.2962077,0,0.0039866108786611,0
0.0041194979079498,142198.39624161,0,0.0041194979079498,0
0.0042523849372385,142183.01570846,0,0.0042523849372385,0
0.0043852719665272,142167.15461955,0,0.0043852719665272,0
0.0045181589958159,142150.81299236,0,0.0045181589958159,0
0.0046510460251046,142133.99085236,0,0.0046510460251046,0
0.0047839330543933,142116.68823572,0,0.0047839330543933,0
0.004916820083682,142098.90519336,0,0.004916820083682,0
0.0050497071129707,142080.64179657,0,0.0050497071129707,0
0.0051825941422594,142061.89814521,0,0.0051825941422594,0
0.0053154811715481,142042.67437911,0,0.0053154811715481,0
0.0054483682008368,142022.97069426,0,0.0054483682008368,0
0.0055812552301255,142002.78736555,0,0.0055812552301255,0
0.0057141422594142,141982.12477881,0,0.0057141422594142,0
0.0058470292887029,141960.9834759,0,0.0058470292887029,0
0.0059799163179916,141939.36421807,0,0.0059799163179916,0
0.0061128033472803,141917.26807525,0,0.0061128033472803,0
0.006245690376569,141894.69655149,0,0.006245690376569,0
0.0063785774058577,141871.65176156,0,0.0063785774058577,0
0.0065114644351464,141848.13667926,0,0.0065114644351464,0
0.0066443514644351,141824.15548688,0,0.0066443514644351,0
0.0067772384937238,141799.71406664,0,0.0067772384937238,0
0.0069101255230126,141774.82069209,0,0.0069101255230126,0
0.0070430125523013,141749.48700072,0,0.0070430125523013,0
0.00717589958159,141723.72936213,0,0.00717589958159,0
0.0073087866108787,141697.57080268,0,0.0073087866108787,0
0.0074416736401674,141671.04371294,0,0.0074416736401674,0
0.0075745606694561,141644.19365626,0,0.0075745606694561,0
0.0077074476987448,141617.08472637,0,0.0077074476987448,0
0.0078403347280335,141589.80708401,0,0.0078403347280335,0
0.0079732217573222,141562.48755867,0,0.0079732217573222,0
0.0081061087866109,141535.12759825,0,0.0081061087866109,0
0.0082389958158996,141507.61257455,0,0.0082389958158996,0
0.0083718828451883,141479.86138405,0,0.0083718828451883,0
0.008504769874477,141451.81664355,0,0.008504769874477,0
0.0086376569037657,141423.43775317,0,0.0086376569037657,0
0.0087705439330544,141394.69598798,0,0.0087705439330544,0
0.0089034309623431,141365.5710251,0,0.0089034309623431,0
0.0090363179916318,141336.04848646,0,0.0090363179916318,0
0.0091692050209205,141306.11820019,0,0.0091692050209205,0
0.0093020920502092,141275.77297044,0,0.0093020920502092,0
0.0094349790794979,141245.00770698,0,0.0094349790794979,0
0.0095678661087866,141213.81880925,0,0.0095678661087866,0
0.0097007531380753,141182.20373063,0,0.0097007531380753,0
0.009833640167364,141150.16066993,0,0.009833640167364,0
0.0099665271966527,141117.68835315,0,0.0099665271966527,0
0.010099414225941,141084.78587882,0,0.010099414225941,0
0.01023230125523,141051.45260846,0,0.01023230125523,0
0.010365188284519,141017.6880888,0,0.010365188284519,0
0.010498075313808,140983.4919963,0,0.010498075313808,0
0.010630962343096,140948.86409746,0,0.010630962343096,0
0.010763849372385,140913.80421994,0,0.010763849372385,0
0.010896736401674,140878.31223103,0,0.010896736401674,0
0.011029623430962,140842.38802094,0,0.011029623430962,0
0.011162510460251,140806.03148885,0,0.011162510460251,0
0.01129539748954,140769.24253002,0,0.01129539748954,0
0.011428284518828,140732.02102239,0,0.011428284518828,0
0.011561171548117,140694.36681109,0,0.011561171548117,0
0.011694058577406,140656.27968899,0,0.011694058577406,0
0.011826945606695,140617.7593709,0,0.011826945606695,0
0.011959832635983,140578.80545835,0,0.011959832635983,0
0.012092719665272,140539.41739063,0,0.012092719665272,0
0.012225606694561,140499.59437632,0,0.012225606694561,0
0.012358493723849,140459.33529682,0,0.012358493723849,0
0.012491380753138,140418.63857045,0,0.012491380753138,0
0.012624267782427,140377.50196062,0,0.012624267782427,0
0.012757154811715,140335.92230492,0,0.012757154811715,0
0.012890041841004,140293.89513234,0,0.012890041841004,0
0.013022928870293,140251.41412265,0,0.013022928870293,0
0.013155815899582,140208.4703424,0,0.013155815899582,0
0.01328870292887,140165.05116548,0,0.01328870292887,0
0.013421589958159,140121.13874794,0,0.013421589958159,0
0.013554476987448,140076.70787285,0,0.013554476987448,0
0.013687364016736,140031.72290521,0,0.013687364016736,0
0.013820251046025,139986.13348918,0,0.013820251046025,0
0.013953138075314,139939.86846837,0,0.013953138075314,0
0.014086025104603,139892.82729526,0,0.014086025104603,0
0.014218912133891,139844.8678929,0,0.014218912133891,0
0.01435179916318,139795.78950351,0,0.01435179916318,0
0.014484686192469,139745.30845408,0,0.014484686192469,0
0.014617573221757,139693.02391351,0,0.014617573221757,0
0.014750460251046,139638.36950813,0,0.014750460251046,0
0.014883347280335,139580.54495574,0,0.014883347280335,0
0.015016234309623,139518.41946606,0,0.015016234309623,0
0.015149121338912,139450.39524833,0,0.015149121338912,0
0.015282008368201,139374.2146515,0,0.015282008368201,0
0.01541489539749,139286.68765942,0,0.01541489539749,0
0.015547782426778,139183.30685067,0,0.015547782426778,0
0.015680669456067,139057.70335069,0,0.015680669456067,0
0.015813556485356,138900.87811288,0,0.015813556485356,0
0.015946443514644,138700.11575804,0,0.015946443514644,0
0.016079330543933,138445.39790878,0,0.016079330543933,0
0.016212217573222,138148.35827461,0,0.016212217573222,0
0.01634510460251,137817.8903751,0,0.01634510460251,0
0.016477991631799,137460.79230239,0,0.016477991631799,0
0.016610878661088,137082.25978997,0,0.016610878661088,0
0.016743765690377,136686.26327093,0,0.016743765690377,0
0.016876652719665,136275.83621807,0,0.016876652719665,0
0.017009539748954,135853.2956377,0,0.017009539748954,0
0.017142426778243,135420.41067907,0,0.017142426778243,0
0.017275313807531,134978.53156635,0,0.017275313807531,0
0.01740820083682,134528.68818899,0,0.01740820083682,0
0.017541087866109,134071.66548968,0,0.017541087866109,0
0.017673974895397,133608.06111014,0,0.017673974895397,0
0.017806861924686,133138.32947024,0,0.017806861924686,0
0.017939748953975,132662.81547386,0,0.017939748953975,0
0.018072635983264,132181.78028376,0,0.018072635983264,0
0.018205523012552,131695.42103334,0,0.018205523012552,0
0.018338410041841,131203.88590399,0,0.018338410041841,0
0.01847129707113,130707.28566099,0,0.01847129707113,0
0.018604184100418,130205.70248443,0,0.018604184100418,0
0.018737071129707,129699.19673542,0,0.018737071129707,0
0.018869958158996,129187.81214831,0,0.018869958158996,0
0.019002845188285,128671.57982544,0,0.019002845188285,0
0.019135732217573,128150.52132428,0,0.019135732217573,0
0.019268619246862,127624.65106061,0,0.019268619246862,0
0.019401506276151,127093.97820212,0,0.019401506276151,0
0.019534393305439,126558.50818945,0,0.019534393305439,0
0.019667280334728,126018.24399485,0,0.019667280334728,0
0.019800167364017,125473.18720914,0,0.019800167364017,0
0.019933054393305,124923.33903539,0,0.019933054393305,0
0.020065941422594,124368.70126051,0,0.020065941422594,0
0.020198828451883,123809.27727408,0,0.020198828451883,0
0.020331715481172,123245.07320695,0,0.020331715481172,0
0.02046460251046,122676.09927021,0,0.02046460251046,0
0.020597489539749,122102.37138912,0,0.020597489539749,0
0.020730376569038,121523.91324718,0,0.020730376569038,0
0.020863263598326,120940.75888431,0,0.020863263598326,0
0.020996150627615,120352.95603176,0,0.020996150627615,0
0.021129037656904,119760.57041815,0,0.021129037656904,0
0.021261924686192,119163.69134933,0,0.021261924686192,0
0.021394811715481,118562.43895365,0,0.021394811715481,0
0.02152769874477,117956.9736015,0,0.02152769874477,0
0.021660585774059,117347.50816025,0,0.021660585774059,0
0.021793472803347,116734.32394439,0,0.021793472803347,0
0.021926359832636,116117.79147991,0,0.021926359832636,0
0.022059246861925,115498.39753923,0,0.022059246861925,0
0.022192133891213,114876.78034221,0,0.022192133891213,0
0.022325020920502,114253.77539086,0,0.022325020920502,0
0.022457907949791,113630.47514972,0,0.022457907949791,0
0.022590794979079,113008.30675343,0,0.022590794979079,0
0.022723682008368,112389.13318418,0,0.022723682008368,0
0.022856569037657,111775.3850042,0,0.022856569037657,0
0.022989456066946,111170.23186541,0,0.022989456066946,0
0.023122343096234,110577.80580046,0,0.023122343096234,0
0.023255230125523,110003.4919201,0,0.023255230125523,0
0.023388117154812,109454.30685481,0,0.023388117154812,0
0.0235210041841,108939.39141344,0,0.0235210041841,0
0.023653891213389,108470.65191844,0,0.023653891213389,0
0.023786778242678,108063.59507591,0,0.023786778242678,0
0.023919665271967,107738.41477273,0,0.023919665271967,0
0.024052552301255,107480.43705641,0,0.024052552301255,0
0.024185439330544,107270.06498386,0,0.024185439330544,0
0.024318326359833,107093.40140415,0,0.024318326359833,0
0.024451213389121,106940.59130138,0,0.024451213389121,0
0.02458410041841,106804.64621216,0,0.02458410041841,0
0.024716987447699,106680.61053341,0,0.024716987447699,0
0.024849874476987,106564.970293,0,0.024849874476987,0
0.024982761506276,106455.23386923,0,0.024982761506276,0
0.025115648535565,106349.63465202,0,0.025115648535565,0
0.025248535564854,106246.92018125,0,0.025248535564854,0
0.025381422594142,106146.20261191,0,0.025381422594142,0
0.025514309623431,106046.85267009,0,0.025514309623431,0
0.02564719665272,105948.42445093,0,0.02564719665272,0
0.025780083682008,105850.60208869,0,0.025780083682008,0
0.025912970711297,105753.16193745,0,0.025912970711297,0
0.026045857740586,105655.94575146,0,0.026045857740586,0
0.026178744769874,105558.84166585,0,0.026178744769874,0
0.026311631799163,105461.77070908,0,0.026311631799163,0
0.026444518828452,105364.6772383,0,0.026444518828452,0
0.026577405857741,105267.52215647,0,0.026577405857741,0
0.026710292887029,105170.27810246,0,0.026710292887029,0
0.026843179916318,105072.92603995,0,0.026843179916318,0
0.026976066945607,104975.45283863,0,0.026976066945607,0
0.027108953974895,104877.84955881,0,0.027108953974895,0
0.027241841004184,104780.11023506,0,0.027241841004184,0
0.027374728033473,104682.23101356,0,0.027374728033473,0
0.027507615062762,104584.20954042,0,0.027507615062762,0
0.02764050209205,104486.04452791,0,0.02764050209205,0
0.027773389121339,104387.73544683,0,0.027773389121339,0
0.027906276150628,104289.28230838,0,0.027906276150628,0
0.028039163179916,104190.68550945,0,0.028039163179916,0
0.028172050209205,104091.94572291,0,0.028172050209205,0
0.028304937238494,103993.06381972,0,0.028304937238494,0
0.028437824267782,103894.04081372,0,0.028437824267782,0
0.028570711297071,103794.87782237,0,0.028570711297071,0
0.02870359832636,103695.57603873,0,0.02870359832636,0
0.028836485355649,103596.13671154,0,0.028836485355649,0
0.028969372384937,103496.56113074,0,0.028969372384937,0
0.029102259414226,103396.85061693,0,0.029102259414226,0
0.029235146443515,103297.00651333,0,0.029235146443515,0
0.029368033472803,103197.03017947,0,0.029368033472803,0
0.029500920502092,103096.92298559,0,0.029500920502092,0
0.029633807531381,102996.68630737,0,0.029633807531381,0
0.029766694560669,102896.32152016,0,0.029766694560669,0
0.029899581589958,102795.82999205,0,0.029899581589958,0
0.030032468619247,102695.21307503,0,0.030032468619247,0
0.030165355648536,102594.47209308,0,0.030165355648536,0
0.030298242677824,102493.60832592,0,0.030298242677824,0
0.030431129707113,102392.62298624,0,0.030431129707113,0
0.030564016736402,102291.51718803,0,0.030564016736402,0
0.03069690376569,102190.29190193,0,0.03069690376569,0
0.030829790794979,102088.94789252,0,0.030829790794979,0
0.030962677824268,101987.48563,0,0.030962677824268,0
0.031095564853556,101885.90516579,0,0.031095564853556,0
0.031228451882845,101784.20595733,0,0.031228451882845,0
0.031361338912134,101682.38662119,0,0.031361338912134,0
0.031494225941423,101580.44458536,0,0.031494225941423,0
0.031627112970711,101478.37559921,0,0.031627112970711,0
0.03176,101376.17304328,0,0.03176,0
