id,pressure,x,y,z
0,238104.69936425,0,0,0
0.0001328870292887,238100.16311116,0,0.0001328870292887,0
0.00026577405857741,238095.24750517,0,0.00026577405857741,0
0.00039866108786611,238089.68288227,0,0.00039866108786611,0
0.00053154811715481,238083.27754483,0,0.00053154811715481,0
0.00066443514644351,238075.89521216,0,0.00066443514644351,0
0.00079732217573222,238067.43899178,0,0.00079732217573222,0
0.00093020920502092,238057.8399857,0,0.00093020920502092,0
0.0010630962343096,238047.0491916,0,0.0010630962343096,0
0.0011959832635983,238035.03174591,0,0.0011959832635983,0
0.001328870292887,238021.76283176,0,0.001328870292887,0
0.0014617573221757,238007.22477025,0,0.0014617573221757,0
0.0015946443514644,237991.40495286,0,0.0015946443514644,0
0.0017275313807531,237974.29437186,0,0.0017275313807531,0
0.0018604184100418,237955.88657557,0,0.0018604184100418,0
0.0019933054393305,237936.17692591,0,0.0019933054393305,0
0.0021261924686192,237915.16207056,0,0.0021261924686192,0
0.0022590794979079,237892.83956779,0,0.0022590794979079,0
0.0023919665271967,237869.20761983,0,0.0023919665271967,0
0.0025248535564854,237844.26488329,0,0.0025248535564854,0
0.0026577405857741,237818.01033452,0,0.0026577405857741,0
0.0027906276150628,237790.44317382,0,0.0027906276150628,0
0.0029235146443515,237761.56275745,0,0.0029235146443515,0
0.0030564016736402,237731.36854933,0,0.0030564016736402,0
0.0031892887029289,237699.86008676,0,0.0031892887029289,0
0.0033221757322176,237667.03695614,0,0.0033221757322176,0
0.0034550627615063,237632.89877588,0,0.0034550627615063,0
0.003587949790795,237597.44518437,0,0.003587949790795,0
0.0037208368200837,237560.67583171,0,0.0037208368200837,0
0.0038537238493724,237522.59037422,0,0.0038537238493724,0
0.0039866108786611,237483.18847099,0,0.0039866108786611,0
0.0041194979079498,237442.46978221,0,0.0041194979079498,0
0.0042523849372385,237400.43396893,0,0.0042523849372385,0
0.0043852719665272,237357.08069439,0,0.0043852719665272,0
0.0045181589958159,237312.40962689,0,0.0045181589958159,0
0.0046510460251046,237266.42044477,0,0.0046510460251046,0
0.0047839330543933,237219.11284383,0,0.0047839330543933,0
0.004916820083682,237170.48654828,0,0.004916820083682,0
0.0050497071129707,237120.54132644,0,0.0050497071129707,0
0.0051825941422594,237069.27701294,0,0.0051825941422594,0
0.0053154811715481,237016.69354022,0,0.0053154811715481,0
0.0054483682008368,236962.79098288,0,0.0054483682008368,0
0.0055812552301255,236907.56962014,0,0.0055812552301255,0
0.0057141422594142,236851.03002385,0,0.0057141422594142,0
0.0058470292887029,236793.17318226,0,0.0058470292887029,0
0.0059799163179916,236734.00067415,0,0.0059799163179916,0
0.0061128033472803,236673.51491393,0,0.0061128033472803,0
0.006245690376569,236611.71949625,0,0.006245690376569,0
0.0063785774058577,236548.61968092,0,0.0063785774058577,0
0.0065114644351464,236484.22307503,0,0.0065114644351464,0
0.0066443514644351,236418.54059239,0,0.0066443514644351,0
0.0067772384937238,236351.58780321,0,0.0067772384937238,0
0.0069101255230126,236283.38683267,0,0.0069101255230126,0
0.0070430125523013,236213.96903144,0,0.0070430125523013,0
0.00717589958159,236143.37873225,0,0.00717589958159,0
0.0073087866108787,236071.67853401,0,0.0073087866108787,0
0.0074416736401674,235998.95673463,0,0.0074416736401674,0
0.0075745606694561,235925.33778621,0,0.0075745606694561,0
0.0077074476987448,235850.99700168,0,0.0077074476987448,0
0.0078403347280335,235776.18124148,0,0.0078403347280335,0
0.0079732217573222,235701.23801146,0,0.0079732217573222,0
0.0081061087866109,235626.17091699,0,0.0081061087866109,0
0.0082389958158996,235550.6651254,0,0.0082389958158996,0
0.0083718828451883,235474.4977121,0,0.0083718828451883,0
0.008504769874477,235397.51077503,0,0.008504769874477,0
0.0086376569037657,235319.59241266,0,0.0086376569037657,0
0.0087705439330544,235240.66326579,0,0.0087705439330544,0
0.0089034309623431,235160.66699565,0,0.0089034309623431,0
0.0090363179916318,235079.56354723,0,0.0090363179916318,0
0.0091692050209205,234997.32438288,0,0.0091692050209205,0
0.0093020920502092,234913.92911012,0,0.0093020920502092,0
0.0094349790794979,234829.3630957,0,0.0094349790794979,0
0.0095678661087866,234743.61577747,0,0.0095678661087866,0
0.0097007531380753,234656.67946985,0,0.0097007531380753,0
0.009833640167364,234568.54851859,0,0.009833640167364,0
0.0099665271966527,234479.21870239,0,0.0099665271966527,0
0.010099414225941,234388.68680922,0,0.010099414225941,0
0.01023230125523,234296.950336,0,0.01023230125523,0
0.010365188284519,234204.00727541,0,0.010365188284519,0
0.010498075313808,234109.85596385,0,0.010498075313808,0
0.010630962343096,234014.49497252,0,0.010630962343096,0
0.010763849372385,233917.92302806,0,0.010763849372385,0
0.010896736401674,233820.13895346,0,0.010896736401674,0
0.011029623430962,233721.14162193,0,0.011029623430962,0
0.011162510460251,233620.92991829,0,0.011162510460251,0
0.01129539748954,233519.50270301,0,0.01129539748954,0
0.011428284518828,233416.85877489,0,0.011428284518828,0
0.011561171548117,233312.99682749,0,0.011561171548117,0
0.011694058577406,233207.91539442,0,0.011694058577406,0
0.011826945606695,233101.61277662,0,0.011826945606695,0
0.011959832635983,232994.08694302,0,0.011959832635983,0
0.012092719665272,232885.33539254,0,0.012092719665272,0
0.012225606694561,232775.35496079,0,0.012225606694561,0
0.012358493723849,232664.14154819,0,0.012358493723849,0
0.012491380753138,232551.68973664,0,0.012491380753138,0
0.012624267782427,232437.99224857,0,0.012624267782427,0
0.012757154811715,232323.03918307,0,0.012757154811715,0
0.012890041841004,232206.816937,0,0.012890041841004,0
0.013022928870293,232089.30668083,0,0.013022928870293,0
0.013155815899582,231970.48220541,0,0.013155815899582,0
0.01328870292887,231850.30687995,0,0.01328870292887,0
0.013421589958159,231728.729354,0,0.013421589958159,0
0.013554476987448,231605.6774853,0,0.013554476987448,0
0.013687364016736,231481.04976054,0,0.013687364016736,0
0.013820251046025,231354.70317442,0,0.013820251046025,0
0.013953138075314,231226.43610463,0,0.013953138075314,0
0.014086025104603,231095.96411689,0,0.014086025104603,0
0.014218912133891,230962.88578149,0,0.014218912133891,0
0.01435179916318,230826.63437769,0,0.01435179916318,0
0.014484686192469,230686.40966013,0,0.014484686192469,0
0.014617573221757,230541.08145665,0,0.014617573221757,0
0.014750460251046,230389.05346873,0,0.014750460251046,0
0.014883347280335,230228.07084599,0,0.014883347280335,0
0.015016234309623,230054.94832397,0,0.015016234309623,0
0.015149121338912,229865.18613341,0,0.015149121338912,0
0.015282008368201,229652.42735289,0,0.015282008368201,0
0.01541489539749,229407.6912532,0,0.01541489539749,0
0.015547782426778,229118.2901648,0,0.015547782426778,0
0.015680669456067,228766.29923067,0,0.015680669456067,0
0.015813556485356,228326.39448484,0,0.015813556485356,0
0.015946443514644,227762.79854015,0,0.015946443514644,0
0.016079330543933,227047.225616,0,0.016079330543933,0
0.016212217573222,226211.87430768,0,0.016212217573222,0
0.01634510460251,225281.29721387,0,0.01634510460251,0
0.016477991631799,224274.20416034,0,0.016477991631799,0
0.016610878661088,223204.83983517,0,0.016610878661088,0
0.016743765690377,222084.03624612,0,0.016743765690377,0
0.016876652719665,220920.01672252,0,0.016876652719665,0
0.017009539748954,219719.01007923,0,0.017009539748954,0
0.017142426778243,218485.71972965,0,0.017142426778243,0
0.017275313807531,217223.68196847,0,0.017275313807531,0
0.01740820083682,215935.53957154,0,0.01740820083682,0
0.017541087866109,214623.25069143,0,0.017541087866109,0
0.017673974895397,213288.24831391,0,0.017673974895397,0
0.017806861924686,211931.56193892,0,0.017806861924686,0
0.017939748953975,210553.91039753,0,0.017939748953975,0
0.018072635983264,209155.77261388,0,0.018072635983264,0
0.018205523012552,207737.44151446,0,0.018205523012552,0
0.018338410041841,206299.06506008,0,0.018338410041841,0
0.01847129707113,204840.67743853,0,0.01847129707113,0
0.018604184100418,203362.22274043,0,0.018604184100418,0
0.018737071129707,201863.57289476,0,0.018737071129707,0
0.018869958158996,200344.5412246,0,0.018869958158996,0
0.019002845188285,198804.89266668,0,0.019002845188285,0
0.019135732217573,197244.35145852,0,0.019135732217573,0
0.019268619246862,195662.60691558,0,0.019268619246862,0
0.019401506276151,194059.31778551,0,0.019401506276151,0
0.019534393305439,192434.115567,0,0.019534393305439,0
0.019667280334728,190786.60711002,0,0.019667280334728,0
0.019800167364017,189116.37676677,0,0.019800167364017,0
0.019933054393305,187422.98833532,0,0.019933054393305,0
0.020065941422594,185705.98702861,0,0.020065941422594,0
0.020198828451883,183964.90170915,0,0.020198828451883,0
0.020331715481172,182199.24765556,0,0.020331715481172,0
0.02046460251046,180408.53017181,0,0.02046460251046,0
0.020597489539749,178592.24941777,0,0.020597489539749,0
0.020730376569038,176749.90693396,0,0.020730376569038,0
0.020863263598326,174881.01446184,0,0.020863263598326,0
0.020996150627615,172985.10583119,0,0.020996150627615,0
0.021129037656904,171061.75291066,0,0.021129037656904,0
0.021261924686192,169110.58691064,0,0.021261924686192,0
0.021394811715481,167131.32670996,0,0.021394811715481,0
0.02152769874477,165123.81637429,0,0.02152769874477,0
0.021660585774059,163088.07467783,0,0.021660585774059,0
0.021793472803347,161024.36027404,0,0.021793472803347,0
0.021926359832636,158933.25724031,0,0.021926359832636,0
0.022059246861925,156815.78711608,0,0.022059246861925,0
0.022192133891213,154673.55535608,0,0.022192133891213,0
0.022325020920502,152508.94244552,0,0.022325020920502,0
0.022457907949791,150325.35292256,0,0.022457907949791,0
0.022590794979079,148127.5394179,0,0.022590794979079,0
0.022723682008368,145922.02379612,0,0.022723682008368,0
0.022856569037657,143717.64388523,0,0.022856569037657,0
0.022989456066946,141526.26251139,0,0.022989456066946,0
0.023122343096234,139363.68613299,0,0.023122343096234,0
0.023255230125523,137250.85395457,0,0.023255230125523,0
0.023388117154812,135215.37585236,0,0.023388117154812,0
0.0235210041841,133293.51986532,0,0.0235210041841,0
0.023653891213389,131532.77884345,0,0.023653891213389,0
0.023786778242678,129995.18300402,0,0.023786778242678,0
0.023919665271967,128761.57314212,0,0.023919665271967,0
0.024052552301255,127778.00825991,0,0.024052552301255,0
0.024185439330544,126971.07389285,0,0.024185439330544,0
0.024318326359833,126288.76222905,0,0.024318326359833,0
0.024451213389121,125694.23066913,0,0.024451213389121,0
0.02458410041841,125161.37970501,0,0.02458410041841,0
0.024716987447699,124671.72001307,0,0.024716987447699,0
0.024849874476987,124212.15301097,0,0.024849874476987,0
0.024982761506276,123773.39859739,0,0.024982761506276,0
0.025115648535565,123348.88139173,0,0.025115648535565,0
0.025248535564854,122933.9417864,0,0.025248535564854,0
0.025381422594142,122525.27709665,0,0.025381422594142,0
0.025514309623431,122120.545707,0,0.025514309623431,0
0.02564719665272,121718.08667862,0,0.02564719665272,0
0.025780083682008,121316.7211435,0,0.025780083682008,0
0.025912970711297,120915.61163104,0,0.025912970711297,0
0.026045857740586,120514.16242983,0,0.026045857740586,0
0.026178744769874,120111.94901502,0,0.026178744769874,0
0.026311631799163,119708.66806306,0,0.026311631799163,0
0.026444518828452,119304.10204826,0,0.026444518828452,0
0.026577405857741,118898.09416745,0,0.026577405857741,0
0.026710292887029,118490.53057968,0,0.026710292887029,0
0.026843179916318,118081.32782685,0,0.026843179916318,0
0.026976066945607,117670.42392386,0,0.026976066945607,0
0.027108953974895,117257.77204747,0,0.027108953974895,0
0.027241841004184,116843.33606575,0,0.027241841004184,0
0.027374728033473,116427.08737092,0,0.027374728033473,0
0.027507615062762,116009.00263532,0,0.027507615062762,0
0.02764050209205,115589.06222094,0,0.02764050209205,0
0.027773389121339,115167.24905188,0,0.027773389121339,0
0.027906276150628,114743.54781428,0,0.027906276150628,0
0.028039163179916,114317.94438826,0,0.028039163179916,0
0.028172050209205,113890.42544369,0,0.028172050209205,0
0.028304937238494,113460.97815191,0,0.028304937238494,0
0.028437824267782,113029.58997897,0,0.028437824267782,0
0.028570711297071,112596.24853616,0,0.028570711297071,0
0.02870359832636,112160.94147029,0,0.02870359832636,0
0.028836485355649,111723.65638116,0,0.028836485355649,0
0.028969372384937,111284.38075661,0,0.028969372384937,0
0.029102259414226,110843.10191826,0,0.029102259414226,0
0.029235146443515,110399.80697168,0,0.029235146443515,0
0.029368033472803,109954.48275589,0,0.029368033472803,0
0.029500920502092,109507.11578663,0,0.029500920502092,0
0.029633807531381,109057.69218742,0,0.029633807531381,0
0.029766694560669,108606.19760086,0,0.029766694560669,0
0.029899581589958,108152.61707037,0,0.029899581589958,0
0.030032468619247,107696.93487911,0,0.030032468619247,0
0.030165355648536,107239.13432792,0,0.030165355648536,0
0.030298242677824,106779.19742678,0,0.030298242677824,0
0.030431129707113,106317.10446425,0,0.030431129707113,0
0.030564016736402,105852.83340514,0,0.030564016736402,0
0.03069690376569,105386.35904631,0,0.03069690376569,0
0.030829790794979,104917.65183213,0,0.030829790794979,0
0.030962677824268,104446.6761914,0,0.030962677824268,0
0.031095564853556,103973.38820092,0,0.031095564853556,0
0.031228451882845,103497.7323023,0,0.031228451882845,0
0.031361338912134,103019.63668696,0,0.031361338912134,0
0.031494225941423,102539.00680819,0,0.031494225941423,0
0.031627112970711,102055.71625916,0,0.031627112970711,0
0.03176,101569.59394639,0,0.03176,0
