id,pressure,x,y,z
0,124823.16055891,0,0,0
0.0001328870292887,124822.14854982,0,0.0001328870292887,0
0.00026577405857741,124821.05191408,0,0.00026577405857741,0
0.00039866108786611,124819.81049983,0,0.00039866108786611,0
0.00053154811715481,124818.38155266,0,0.00053154811715481,0
0.00066443514644351,124816.73468481,0,0.00066443514644351,0
0.00079732217573222,124814.84829929,0,0.00079732217573222,0
0.00093020920502092,124812.70704803,0,0.00093020920502092,0
0.0010630962343096,124810.30002511,0,0.0010630962343096,0
0.0011959832635983,124807.61948252,0,0.0011959832635983,0
0.001328870292887,124804.65991723,0,0.001328870292887,0
0.0014617573221757,124801.41742237,0,0.0014617573221757,0
0.0015946443514644,124797.88922596,0,0.0015946443514644,0
0.0017275313807531,124794.07336309,0,0.0017275313807531,0
0.0018604184100418,124789.96844286,0,0.0018604184100418,0
0.0019933054393305,124785.57348276,0,0.0019933054393305,0
0.0021261924686192,124780.88779093,0,0.0021261924686192,0
0.0022590794979079,124775.91088244,0,0.0022590794979079,0
0.0023919665271967,124770.64241988,0,0.0023919665271967,0
0.0025248535564854,124765.08217098,0,0.0025248535564854,0
0.0026577405857741,124759.22997867,0,0.0026577405857741,0
0.0027906276150628,124753.08573965,0,0.0027906276150628,0
0.0029235146443515,124746.64938925,0,0.0029235146443515,0
0.0030564016736402,124739.92089066,0,0.0030564016736402,0
0.0031892887029289,124732.90022729,0,0.0031892887029289,0
0.0033221757322176,124725.58739736,0,0.0033221757322176,0
0.0034550627615063,124717.98241006,0,0.0034550627615063,0
0.003587949790795,124710.08528292,0,0.003587949790795,0
0.0037208368200837,124701.89603993,0,0.0037208368200837,0
0.0038537238493724,124693.41471034,0,0.0038537238493724,0
0.0039866108786611,124684.6413279,0,0.0039866108786611,0
0.0041194979079498,124675.57593047,0,0.0041194979079498,0
0.0042523849372385,124666.21855996,0,0.0042523849372385,0
0.0043852719665272,124656.56926268,0,0.0043852719665272,0
0.0045181589958159,124646.62808991,0,0.0045181589958159,0
0.0046510460251046,124636.39509906,0,0.0046510460251046,0
0.0047839330543933,124625.87035529,0,0.0047839330543933,0
0.004916820083682,124615.05393393,0,0.004916820083682,0
0.0050497071129707,124603.94592396,0,0.0050497071129707,0
0.0051825941422594,124592.54643293,0,0.0051825941422594,0
0.0053154811715481,124580.85559391,0,0.0053154811715481,0
0.0054483682008368,124568.87357532,0,0.0054483682008368,0
0.0055812552301255,124556.60059468,0,0.0055812552301255,0
0.0057141422594142,124544.03693814,0,0.0057141422594142,0
0.0058470292887029,124531.18298775,0,0.0058470292887029,0
0.0059799163179916,124518.03926001,0,0.0059799163179916,0
0.0061128033472803,124504.60645998,0,0.0061128033472803,0
0.006245690376569,124490.88555745,0,0.006245690376569,0
0.0063785774058577,124476.87789414,0,0.0063785774058577,0
0.0065114644351464,124462.58533441,0,0.0065114644351464,0
0.0066443514644351,124448.01047733,0,0.0066443514644351,0
0.0067772384937238,124433.15695506,0,0.0067772384937238,0
0.0069101255230126,124418.02985245,0,0.0069101255230126,0
0.0070430125523013,124402.63629753,0,0.0070430125523013,0
0.00717589958159,124386.98629199,0,0.00717589958159,0
0.0073087866108787,124371.09387956,0,0.0073087866108787,0
0.0074416736401674,124354.97878967,0,0.0074416736401674,0
0.0075745606694561,124338.66874963,0,0.0075745606694561,0
0.0077074476987448,124322.20273727,0,0.0077074476987448,0
0.0078403347280335,124305.63555675,0,0.0078403347280335,0
0.0079732217573222,124289.04427533,0,0.0079732217573222,0
0.0081061087866109,124272.4298104,0,0.0081061087866109,0
0.0082389958158996,124255.72258748,0,0.0082389958158996,0
0.0083718828451883,124238.87339774,0,0.0083718828451883,0
0.008504769874477,124221.84744281,0,0.008504769874477,0
0.0086376569037657,124204.62012101,0,0.0086376569037657,0
0.0087705439330544,124187.17404577,0,0.0087705439330544,0
0.0089034309623431,124169.49693605,0,0.0089034309623431,0
0.0090363179916318,124151.58012357,0,0.0090363179916318,0
0.0091692050209205,124133.41749663,0,0.0091692050209205,0
0.0093020920502092,124115.00475273,0,0.0093020920502092,0
0.0094349790794979,124096.33886981,0,0.0094349790794979,0
0.0095678661087866,124077.41773204,0,0.0095678661087866,0
0.0097007531380753,124058.23986504,0,0.0097007531380753,0
0.009833640167364,124038.80424845,0,0.009833640167364,0
0.0099665271966527,124019.11018336,0,0.0099665271966527,0
0.010099414225941,123999.1571983,0,0.010099414225941,0
0.01023230125523,123978.94498268,0,0.01023230125523,0
0.010365188284519,123958.47333957,0,0.010365188284519,0
0.010498075313808,123937.74215196,0,0.010498075313808,0
0.010630962343096,123916.75135866,0,0.010630962343096,0
0.010763849372385,123895.50093674,0,0.010763849372385,0
0.010896736401674,123873.99088852,0,0.010896736401674,0
0.011029623430962,123852.22123139,0,0.011029623430962,0
0.011162510460251,123830.19198938,0,0.011162510460251,0
0.01129539748954,123807.90318539,0,0.01129539748954,0
0.011428284518828,123785.3548331,0,0.011428284518828,0
0.011561171548117,123762.54692768,0,0.011561171548117,0
0.011694058577406,123739.47943408,0,0.011694058577406,0
0.011826945606695,123716.15227158,0,0.011826945606695,0
0.011959832635983,123692.56529264,0,0.011959832635983,0
0.012092719665272,123668.71825355,0,0.012092719665272,0
0.012225606694561,123644.61077335,0,0.012225606694561,0
0.012358493723849,123620.242276,0,0.012358493723849,0
0.012491380753138,123595.61190888,0,0.012491380753138,0
0.012624267782427,123570.71842775,0,0.012624267782427,0
0.012757154811715,123545.56003422,0,0.012757154811715,0
0.012890041841004,123520.13414626,0,0.012890041841004,0
0.013022928870293,123494.43707386,0,0.013022928870293,0
0.013155815899582,123468.4635608,0,0.013155815899582,0
0.01328870292887,123442.20613717,0,0.01328870292887,0
0.013421589958159,123415.65420438,0,0.013421589958159,0
0.013554476987448,123388.79274236,0,0.013554476987448,0
0.013687364016736,123361.60048266,0,0.013687364016736,0
0.013820251046025,123334.04732696,0,0.013820251046025,0
0.013953138075314,123306.09069932,0,0.013953138075314,0
0.014086025104603,123277.67039169,0,0.014086025104603,0
0.014218912133891,123248.7012803,0,0.014218912133891,0
0.01435179916318,123219.06303361,0,0.01435179916318,0
0.014484686192469,123188.58556906,0,0.014484686192469,0
0.014617573221757,123157.02850271,0,0.014617573221757,0
0.014750460251046,123124.05211066,0,0.014750460251046,0
0.014883347280335,123089.1762961,0,0.014883347280335,0
0.015016234309623,123051.72260784,0,0.015016234309623,0
0.015149121338912,123010.73230991,0,0.015149121338912,0
0.015282008368201,122964.85061035,0,0.015282008368201,0
0.01541489539749,122912.16307152,0,0.01541489539749,0
0.015547782426778,122849.9644513,0,0.015547782426778,0
0.015680669456067,122774.4320664,0,0.015680669456067,0
0.015813556485356,122680.16424248,0,0.015813556485356,0
0.015946443514644,122559.52813173,0,0.015946443514644,0
0.016079330543933,122406.51894211,0,0.016079330543933,0
0.016212217573222,122228.17021795,0,0.016212217573222,0
0.01634510460251,122029.86420497,0,0.01634510460251,0
0.016477991631799,121815.71988296,0,0.016477991631799,0
0.016610878661088,121588.88983697,0,0.016610878661088,0
0.016743765690377,121351.7873808,0,0.016743765690377,0
0.016876652719665,121106.26031847,0,0.016876652719665,0
0.017009539748954,120853.72388004,0,0.017009539748954,0
0.017142426778243,120595.26242333,0,0.017142426778243,0
0.017275313807531,120331.70723966,0,0.017275313807531,0
0.01740820083682,120063.69607822,0,0.01740820083682,0
0.017541087866109,119791.71868446,0,0.017541087866109,0
0.017673974895397,119516.15163891,0,0.017673974895397,0
0.017806861924686,119237.28501094,0,0.017806861924686,0
0.017939748953975,118955.34275115,0,0.017939748953975,0
0.018072635983264,118670.49829418,0,0.018072635983264,0
0.018205523012552,118382.8864983,0,0.018205523012552,0
0.018338410041841,118092.61278341,0,0.018338410041841,0
0.01847129707113,117799.76012706,0,0.01847129707113,0
0.018604184100418,117504.39442327,0,0.018604184100418,0
0.018737071129707,117206.56859094,0,0.018737071129707,0
0.018869958158996,116906.325728,0,0.018869958158996,0
0.019002845188285,116603.70153896,0,0.019002845188285,0
0.019135732217573,116298.72621055,0,0.019135732217573,0
0.019268619246862,115991.4258706,0,0.019268619246862,0
0.019401506276151,115681.8237351,0,0.019401506276151,0
0.019534393305439,115369.9410256,0,0.019534393305439,0
0.019667280334728,115055.79772291,0,0.019667280334728,0
0.019800167364017,114739.41321062,0,0.019800167364017,0
0.019933054393305,114420.80685452,0,0.019933054393305,0
0.020065941422594,114099.9985588,0,0.020065941422594,0
0.020198828451883,113777.00933841,0,0.020198828451883,0
0.020331715481172,113451.86194794,0,0.020331715481172,0
0.02046460251046,113124.58161118,0,0.02046460251046,0
0.020597489539749,112795.19690281,0,0.020597489539749,0
0.020730376569038,112463.74084414,0,0.020730376569038,0
0.020863263598326,112130.25229011,0,0.020863263598326,0
0.020996150627615,111794.77770529,0,0.020996150627615,0
0.021129037656904,111457.37345403,0,0.021129037656904,0
0.021261924686192,111118.1087666,0,0.021261924686192,0
0.021394811715481,110777.0695905,0,0.021394811715481,0
0.02152769874477,110434.3635993,0,0.02152769874477,0
0.021660585774059,110090.12671286,0,0.021660585774059,0
0.021793472803347,109744.53159003,0,0.021793472803347,0
0.021926359832636,109397.79869425,0,0.021926359832636,0
0.022059246861925,109050.21071493,0,0.022059246861925,0
0.022192133891213,108702.13136448,0,0.022192133891213,0
0.022325020920502,108354.02988082,0,0.022325020920502,0
0.022457907949791,108006.51296867,0,0.022457907949791,0
0.022590794979079,107660.36643934,0,0.022590794979079,0
0.022723682008368,107316.60949463,0,0.022723682008368,0
0.022856569037657,106976.56549504,0,0.022856569037657,0
0.022989456066946,106641.95421835,0,0.022989456066946,0
0.023122343096234,106315.01213466,0,0.023122343096234,0
0.023255230125523,105998.6492055,0,0.023255230125523,0
0.023388117154812,105696.65329777,0,0.023388117154812,0
0.0235210041841,105413.95667099,0,0.0235210041841,0
0.023653891213389,105156.9833864,0,0.023653891213389,0
0.023786778242678,104934.10221064,0,0.023786778242678,0
0.023919665271967,104756.21704503,0,0.023919665271967,0
0.024052552301255,104615.24412841,0,0.024052552301255,0
0.024185439330544,104500.43313153,0,0.024185439330544,0
0.024318326359833,104404.15881288,0,0.024318326359833,0
0.024451213389121,104321.0126332,0,0.024451213389121,0
0.02458410041841,104247.15840968,0,0.02458410041841,0
0.024716987447699,104179.87526595,0,0.024716987447699,0
0.024849874476987,104117.23343599,0,0.024849874476987,0
0.024982761506276,104057.86430474,0,0.024982761506276,0
0.025115648535565,104000.79729306,0,0.025115648535565,0
0.025248535564854,103945.34415687,0,0.025248535564854,0
0.025381422594142,103891.0169183,0,0.025381422594142,0
0.025514309623431,103837.46965262,0,0.025514309623431,0
0.02564719665272,103784.45719667,0,0.02564719665272,0
0.025780083682008,103731.80585994,0,0.025780083682008,0
0.025912970711297,103679.39264949,0,0.025912970711297,0
0.026045857740586,103627.13053374,0,0.026045857740586,0
0.026178744769874,103574.95798992,0,0.026178744769874,0
0.026311631799163,103522.83158981,0,0.026311631799163,0
0.026444518828452,103470.72074075,0,0.026444518828452,0
0.026577405857741,103418.60395534,0,0.026577405857741,0
0.026710292887029,103366.46620546,0,0.026710292887029,0
0.026843179916318,103314.29704546,0,0.026843179916318,0
0.026976066945607,103262.08928091,0,0.026976066945607,0
0.027108953974895,103209.8380243,0,0.027108953974895,0
0.027241841004184,103157.54002525,0,0.027241841004184,0
0.027374728033473,103105.19319545,0,0.027374728033473,0
0.027507615062762,103052.79627163,0,0.027507615062762,0
0.02764050209205,103000.34857652,0,0.02764050209205,0
0.027773389121339,102947.84984933,0,0.027773389121339,0
0.027906276150628,102895.30012546,0,0.027906276150628,0
0.028039163179916,102842.69965118,0,0.028039163179916,0
0.028172050209205,102790.04882308,0,0.028172050209205,0
0.028304937238494,102737.34814518,0,0.028304937238494,0
0.028437824267782,102684.59819839,0,0.028437824267782,0
0.028570711297071,102631.7996189,0,0.028570711297071,0
0.02870359832636,102578.95308274,0,0.02870359832636,0
0.028836485355649,102526.05929485,0,0.028836485355649,0
0.028969372384937,102473.11898118,0,0.028969372384937,0
0.029102259414226,102420.13288304,0,0.029102259414226,0
0.029235146443515,102367.10175284,0,0.029235146443515,0
0.029368033472803,102314.02635099,0,0.029368033472803,0
0.029500920502092,102260.90744324,0,0.029500920502092,0
0.029633807531381,102207.74579847,0,0.029633807531381,0
0.029766694560669,102154.54218646,0,0.029766694560669,0
0.029899581589958,102101.29737547,0,0.029899581589958,0
0.030032468619247,102048.01212928,0,0.030032468619247,0
0.030165355648536,101994.68720336,0,0.030165355648536,0
0.030298242677824,101941.32333986,0,0.030298242677824,0
0.030431129707113,101887.92126045,0,0.030431129707113,0
0.030564016736402,101834.48165668,0,0.030564016736402,0
0.03069690376569,101781.00517621,0,0.03069690376569,0
0.030829790794979,101727.4924036,0,0.030829790794979,0
0.030962677824268,101673.94383332,0,0.030962677824268,0
0.031095564853556,101620.35983165,0,0.031095564853556,0
0.031228451882845,101566.74058308,0,0.031228451882845,0
0.031361338912134,101513.08601478,0,0.031361338912134,0
0.031494225941423,101459.39569019,0,0.031494225941423,0
0.031627112970711,101405.66865907,0,0.031627112970711,0
0.03176,101351.90324622,0,0.03176,0
