id,pressure,x,y,z
0,228079.43152106,0,0,0
0.0001328870292887,228075.16885979,0,0.0001328870292887,0
0.00026577405857741,228070.54972591,0,0.00026577405857741,0
0.00039866108786611,228065.32072061,0,0.00039866108786611,0
0.00053154811715481,228059.30170967,0,0.00053154811715481,0
0.00066443514644351,228052.36463396,0,0.00066443514644351,0
0.00079732217573222,228044.41844746,0,0.00079732217573222,0
0.00093020920502092,228035.39841071,0,0.00093020920502092,0
0.0010630962343096,228025.25848044,0,0.0010630962343096,0
0.0011959832635983,228013.96589994,0,0.0011959832635983,0
0.001328870292887,228001.49735374,0,0.001328870292887,0
0.0014617573221757,227987.83623433,0,0.0014617573221757,0
0.0015946443514644,227972.97069934,0,0.0015946443514644,0
0.0017275313807531,227956.89229049,0,0.0017275313807531,0
0.0018604184100418,227939.59495194,0,0.0018604184100418,0
0.0019933054393305,227921.07433261,0,0.0019933054393305,0
0.0021261924686192,227901.32729011,0,0.0021261924686192,0
0.0022590794979079,227880.35153831,0,0.0022590794979079,0
0.0023919665271967,227858.1453967,0,0.0023919665271967,0
0.0025248535564854,227834.70761229,0,0.0025248535564854,0
0.0026577405857741,227810.03723307,0,0.0026577405857741,0
0.0027906276150628,227784.13351802,0,0.0027906276150628,0
0.0029235146443515,227756.99587321,0,0.0029235146443515,0
0.0030564016736402,227728.62380641,0,0.0030564016736402,0
0.0031892887029289,227699.0168949,0,0.0031892887029289,0
0.0033221757322176,227668.17476262,0,0.0033221757322176,0
0.0034550627615063,227636.09706414,0,0.0034550627615063,0
0.003587949790795,227602.78347336,0,0.003587949790795,0
0.0037208368200837,227568.2336757,0,0.0037208368200837,0
0.0038537238493724,227532.447363,0,0.0038537238493724,0
0.0039866108786611,227495.42423025,0,0.0039866108786611,0
0.0041194979079498,227457.163974,0,0.0041194979079498,0
0.0042523849372385,227417.66629219,0,0.0042523849372385,0
0.0043852719665272,227376.93088533,0,0.0043852719665272,0
0.0045181589958159,227334.95745928,0,0.0045181589958159,0
0.0046510460251046,227291.74572986,0,0.0046510460251046,0
0.0047839330543933,227247.29542986,0,0.0047839330543933,0
0.004916820083682,227201.60631931,0,0.004916820083682,0
0.0050497071129707,227154.67820024,0,0.0050497071129707,0
0.0051825941422594,227106.51093754,0,0.0051825941422594,0
0.0053154811715481,227057.10448853,0,0.0053154811715481,0
0.0054483682008368,227006.45894465,0,0.0054483682008368,0
0.0055812552301255,226954.57459014,0,0.0055812552301255,0
0.0057141422594142,226901.45198468,0,0.0057141422594142,0
0.0058470292887029,226847.09207968,0,0.0058470292887029,0
0.0059799163179916,226791.4963819,0,0.0059799163179916,0
0.0061128033472803,226734.6671836,0,0.0061128033472803,0
0.006245690376569,226676.60788636,0,0.006245690376569,0
0.0063785774058577,226617.32345658,0,0.0063785774058577,0
0.0065114644351464,226556.82106622,0,0.0065114644351464,0
0.0066443514644351,226495.11099416,0,0.0066443514644351,0
0.0067772384937238,226432.20789408,0,0.0067772384937238,0
0.0069101255230126,226368.13257792,0,0.0069101255230126,0
0.0070430125523013,226302.91452465,0,0.0070430125523013,0
0.00717589958159,226236.59540922,0,0.00717589958159,0
0.0073087866108787,226169.23406645,0,0.0073087866108787,0
0.0074416736401674,226100.91347358,0,0.0074416736401674,0
0.0075745606694561,226031.75057201,0,0.0075745606694561,0
0.0077074476987448,225961.91008302,0,0.0077074476987448,0
0.0078403347280335,225891.62394122,0,0.0078403347280335,0
0.0079732217573222,225821.21862989,0,0.0079732217573222,0
0.0081061087866109,225750.69755328,0,0.0081061087866109,0
0.0082389958158996,225679.76496029,0,0.0082389958158996,0
0.0083718828451883,225608.21144537,0,0.0083718828451883,0
0.008504769874477,225535.88869053,0,0.008504769874477,0
0.0086376569037657,225462.69159477,0,0.0086376569037657,0
0.0087705439330544,225388.54563049,0,0.0087705439330544,0
0.0089034309623431,225313.39789795,0,0.0089034309623431,0
0.0090363179916318,225237.21079629,0,0.0090363179916318,0
0.0091692050209205,225159.95754564,0,0.0091692050209205,0
0.0093020920502092,225081.61901899,0,0.0093020920502092,0
0.0094349790794979,225002.18150066,0,0.0094349790794979,0
0.0095678661087866,224921.63510028,0,0.0095678661087866,0
0.0097007531380753,224839.97263061,0,0.0097007531380753,0
0.009833640167364,224757.18881338,0,0.009833640167364,0
0.0099665271966527,224673.27971716,0,0.0099665271966527,0
0.010099414225941,224588.24235932,0,0.010099414225941,0
0.01023230125523,224502.07442387,0,0.01023230125523,0
0.010365188284519,224414.77406113,0,0.010365188284519,0
0.010498075313808,224326.33974499,0,0.010498075313808,0
0.010630962343096,224236.7701705,0,0.010630962343096,0
0.010763849372385,224146.06417937,0,0.010763849372385,0
0.010896736401674,224054.22070444,0,0.010896736401674,0
0.011029623430962,223961.23872637,0,0.011029623430962,0
0.011162510460251,223867.11723737,0,0.011162510460251,0
0.01129539748954,223771.8552075,0,0.01129539748954,0
0.011428284518828,223675.45154954,0,0.011428284518828,0
0.011561171548117,223577.90507822,0,0.011561171548117,0
0.011694058577406,223479.21445882,0,0.011694058577406,0
0.011826945606695,223379.37813896,0,0.011826945606695,0
0.011959832635983,223278.39425542,0,0.011959832635983,0
0.012092719665272,223176.26050471,0,0.012092719665272,0
0.012225606694561,223072.97396166,0,0.012225606694561,0
0.012358493723849,222968.53082442,0,0.012358493723849,0
0.012491380753138,222862.92605483,0,0.012491380753138,0
0.012624267782427,222756.15287093,0,0.012624267782427,0
0.012757154811715,222648.20203037,0,0.012757154811715,0
0.012890041841004,222539.06081821,0,0.012890041841004,0
0.013022928870293,222428.71161707,0,0.013022928870293,0
0.013155815899582,222317.12988705,0,0.013155815899582,0
0.01328870292887,222204.2813118,0,0.01328870292887,0
0.013421589958159,222090.1177663,0,0.013421589958159,0
0.013554476987448,221974.57162007,0,0.013554476987448,0
0.013687364016736,221857.54768842,0,0.013687364016736,0
0.013820251046025,221738.9118607,0,0.013820251046025,0
0.013953138075314,221618.47503387,0,0.013953138075314,0
0.014086025104603,221495.97041299,0,0.014086025104603,0
0.014218912133891,221371.02144034,0,0.014218912133891,0
0.01435179916318,221243.0964844,0,0.01435179916318,0
0.014484686192469,221111.44482261,0,0.014484686192469,0
0.014617573221757,220975.00619556,0,0.014617573221757,0
0.014750460251046,220832.28302219,0,0.014750460251046,0
0.014883347280335,220681.15986169,0,0.014883347280335,0
0.015016234309623,220518.64834471,0,0.015016234309623,0
0.015149121338912,220340.52680643,0,0.015149121338912,0
0.015282008368201,220140.83115357,0,0.015282008368201,0
0.01541489539749,219911.13555385,0,0.01541489539749,0
0.015547782426778,219639.53618663,0,0.015547782426778,0
0.015680669456067,219309.21547951,0,0.015680669456067,0
0.015813556485356,218896.41366039,0,0.015813556485356,0
0.015946443514644,218367.5629954,0,0.015946443514644,0
0.016079330543933,217696.12941872,0,0.016079330543933,0
0.016212217573222,216912.34918577,0,0.016212217573222,0
0.01634510460251,216039.28178095,0,0.01634510460251,0
0.016477991631799,215094.50232324,0,0.016477991631799,0
0.016610878661088,214091.3946035,0,0.016610878661088,0
0.016743765690377,213040.13896427,0,0.016743765690377,0
0.016876652719665,211948.46701078,0,0.016876652719665,0
0.017009539748954,210822.23815683,0,0.017009539748954,0
0.017142426778243,209665.88003317,0,0.017142426778243,0
0.017275313807531,208482.72487253,0,0.017275313807531,0
0.01740820083682,207275.26640958,0,0.01740820083682,0
0.017541087866109,206045.35604669,0,0.017541087866109,0
0.017673974895397,204794.35261247,0,0.017673974895397,0
0.017806861924686,203523.23666086,0,0.017806861924686,0
0.017939748953975,202232.6976758,0,0.017939748953975,0
0.018072635983264,200923.20057282,0,0.018072635983264,0
0.018205523012552,199595.03638187,0,0.018205523012552,0
0.018338410041841,198248.36084325,0,0.018338410041841,0
0.01847129707113,196883.22376928,0,0.01847129707113,0
0.018604184100418,195499.59135246,0,0.018604184100418,0
0.018737071129707,194097.36308861,0,0.018737071129707,0
0.018869958158996,192676.3845924,0,0.018869958158996,0
0.019002845188285,191236.45728602,0,0.019002845188285,0
0.019135732217573,189777.34571579,0,0.019135732217573,0
0.019268619246862,188298.7830814,0,0.019268619246862,0
0.019401506276151,186800.47543541,0,0.019401506276151,0
0.019534393305439,185282.10491684,0,0.019534393305439,0
0.019667280334728,183743.3323159,0,0.019667280334728,0
0.019800167364017,182183.79922217,0,0.019800167364017,0
0.019933054393305,180603.12998213,0,0.019933054393305,0
0.020065941422594,179000.93368262,0,0.020065941422594,0
0.020198828451883,177376.80638308,0,0.020198828451883,0
0.020331715481172,175730.33384202,0,0.020331715481172,0
0.02046460251046,174061.09502391,0,0.02046460251046,0
0.020597489539749,172368.66673348,0,0.020597489539749,0
0.020730376569038,170652.62981044,0,0.020730376569038,0
0.020863263598326,168912.57743368,0,0.020863263598326,0
0.020996150627615,167148.12623922,0,0.020996150627615,0
0.021129037656904,165358.93115959,0,0.021129037656904,0
0.021261924686192,163544.70515934,0,0.021261924686192,0
0.021394811715481,161705.24538858,0,0.021394811715481,0
0.02152769874477,159840.46772773,0,0.02152769874477,0
0.021660585774059,157950.45228274,0,0.021660585774059,0
0.021793472803347,156035.50314858,0,0.021793472803347,0
0.021926359832636,154096.22674157,0,0.021926359832636,0
0.022059246861925,152133.63427128,0,0.022059246861925,0
0.022192133891213,150149.27556574,0,0.022192133891213,0
0.022325020920502,148145.41358418,0,0.022325020920502,0
0.022457907949791,146125.25168984,0,0.022457907949791,0
0.022590794979079,144093.22928646,0,0.022590794979079,0
0.022723682008368,142055.40597443,0,0.022723682008368,0
0.022856569037657,140019.96024689,0,0.022856569037657,0
0.022989456066946,137997.83629684,0,0.022989456066946,0
0.023122343096234,136003.58222463,0,0.023122343096234,0
0.023255230125523,134056.4354386,0,0.023255230125523,0
0.023388117154812,132181.72712978,0,0.023388117154812,0
0.0235210041841,130412.69840763,0,0.0235210041841,0
0.023653891213389,128792.84735838,0,0.023653891213389,0
0.023786778242678,127378.96070721,0,0.023786778242678,0
0.023919665271967,126245.02826595,0,0.023919665271967,0
0.024052552301255,125341.33451797,0,0.024052552301255,0
0.024185439330544,124600.3248562,0,0.024185439330544,0
0.024318326359833,123974.13832491,0,0.024318326359833,0
0.024451213389121,123428.86692844,0,0.024451213389121,0
0.02458410041841,122940.48796745,0,0.02458410041841,0
0.024716987447699,122491.98199942,0,0.024716987447699,0
0.024849874476987,122071.29092741,0,0.024849874476987,0
0.024982761506276,121669.87136316,0,0.024982761506276,0
0.025115648535565,121281.66975261,0,0.025115648535565,0
0.025248535564854,120902.39631654,0,0.025248535564854,0
0.025381422594142,120529.01069259,0,0.025381422594142,0
0.025514309623431,120159.35755764,0,0.025514309623431,0
0.02564719665272,119791.90850209,0,0.02564719665272,0
0.025780083682008,119425.57917552,0,0.025780083682008,0
0.025912970711297,119059.59975562,0,0.025912970711297,0
0.026045857740586,118693.42319161,0,0.026045857740586,0
0.026178744769874,118326.66020674,0,0.026178744769874,0
0.026311631799163,117959.03325661,0,0.026311631799163,0
0.026444518828452,117590.34391527,0,0.026444518828452,0
0.026577405857741,117220.44977306,0,0.026577405857741,0
0.026710292887029,116849.24807228,0,0.026710292887029,0
0.026843179916318,116476.66411547,0,0.026843179916318,0
0.026976066945607,116102.6430544,0,0.026976066945607,0
0.027108953974895,115727.14407366,0,0.027108953974895,0
0.027241841004184,115350.13627032,0,0.027241841004184,0
0.027374728033473,114971.5957351,0,0.027374728033473,0
0.027507615062762,114591.50348432,0,0.027507615062762,0
0.02764050209205,114209.84399457,0,0.02764050209205,0
0.027773389121339,113826.60416407,0,0.027773389121339,0
0.027906276150628,113441.77257633,0,0.027906276150628,0
0.028039163179916,113055.33897763,0,0.028039163179916,0
0.028172050209205,112667.29390591,0,0.028172050209205,0
0.028304937238494,112277.62842656,0,0.028304937238494,0
0.028437824267782,111886.33394366,0,0.028437824267782,0
0.028570711297071,111493.40206433,0,0.028570711297071,0
0.02870359832636,111098.8244998,0,0.02870359832636,0
0.028836485355649,110702.59299202,0,0.028836485355649,0
0.028969372384937,110304.69925686,0,0.028969372384937,0
0.029102259414226,109905.13493757,0,0.029102259414226,0
0.029235146443515,109503.89156317,0,0.029235146443515,0
0.029368033472803,109100.96050701,0,0.029368033472803,0
0.029500920502092,108696.33294097,0,0.029500920502092,0
0.029633807531381,108289.99978007,0,0.029633807531381,0
0.029766694560669,107881.95161128,0,0.029766694560669,0
0.029899581589958,107472.17859842,0,0.029899581589958,0
0.030032468619247,107060.67035233,0,0.030032468619247,0
0.030165355648536,106647.41575119,0,0.030165355648536,0
0.030298242677824,106232.40269026,0,0.030298242677824,0
0.030431129707113,105815.61773198,0,0.030431129707113,0
0.030564016736402,105397.04561538,0,0.030564016736402,0
0.03069690376569,104976.66856761,0,0.03069690376569,0
0.030829790794979,104554.46533681,0,0.030829790794979,0
0.030962677824268,104130.40983297,0,0.030962677824268,0
0.031095564853556,103704.4692171,0,0.031095564853556,0
0.031228451882845,103276.60121438,0,0.031228451882845,0
0.031361338912134,102846.75033559,0,0.031361338912134,0
0.031494225941423,102414.84256255,0,0.031494225941423,0
0.031627112970711,101980.77787308,0,0.031627112970711,0
0.03176,101544.41972644,0,0.03176,0
