id,pressure,x,y,z
0,151087.73297109,0,0,0
0.0001328870292887,151085.77375885,0,0.0001328870292887,0
0.00026577405857741,151083.65070861,0,0.00026577405857741,0
0.00039866108786611,151081.24736129,0,0.00039866108786611,0
0.00053154811715481,151078.48093546,0,0.00053154811715481,0
0.00066443514644351,151075.29258813,0,0.00066443514644351,0
0.00079732217573222,151071.64049181,0,0.00079732217573222,0
0.00093020920502092,151067.49491371,0,0.00093020920502092,0
0.0010630962343096,151062.83471778,0,0.0010630962343096,0
0.0011959832635983,151057.64487841,0,0.0011959832635983,0
0.001328870292887,151051.91471313,0,0.001328870292887,0
0.0014617573221757,151045.63662631,0,0.0014617573221757,0
0.0015946443514644,151038.80521625,0,0.0015946443514644,0
0.0017275313807531,151031.41664046,0,0.0017275313807531,0
0.0018604184100418,151023.46816448,0,0.0018604184100418,0
0.0019933054393305,151014.95784123,0,0.0019933054393305,0
0.0021261924686192,151005.884283,0,0.0021261924686192,0
0.0022590794979079,150996.24649951,0,0.0022590794979079,0
0.0023919665271967,150986.04378269,0,0.0023919665271967,0
0.0025248535564854,150975.27562483,0,0.0025248535564854,0
0.0026577405857741,150963.94166046,0,0.0026577405857741,0
0.0027906276150628,150952.04162496,0,0.0027906276150628,0
0.0029235146443515,150939.57532518,0,0.0029235146443515,0
0.0030564016736402,150926.54261866,0,0.0030564016736402,0
0.0031892887029289,150912.94339876,0,0.0031892887029289,0
0.0033221757322176,150898.77758421,0,0.0033221757322176,0
0.0034550627615063,150884.04511173,0,0.0034550627615063,0
0.003587949790795,150868.74593085,0,0.003587949790795,0
0.0037208368200837,150852.88000034,0,0.0037208368200837,0
0.0038537238493724,150836.44728584,0,0.0038537238493724,0
0.0039866108786611,150819.4477584,0,0.0039866108786611,0
0.0041194979079498,150801.88139373,0,0.0041194979079498,0
0.0042523849372385,150783.74817214,0,0.0042523849372385,0
0.0043852719665272,150765.04807908,0,0.0043852719665272,0
0.0045181589958159,150745.78110641,0,0.0045181589958159,0
0.0046510460251046,150725.94725453,0,0.0046510460251046,0
0.0047839330543933,150705.54653559,0,0.0047839330543933,0
0.004916820083682,150684.57897819,0,0.004916820083682,0
0.0050497071129707,150663.04463416,0,0.0050497071129707,0
0.0051825941422594,150640.94358806,0,0.0051825941422594,0
0.0053154811715481,150618.27597078,0,0.0053154811715481,0
0.0054483682008368,150595.04197854,0,0.0054483682008368,0
0.0055812552301255,150571.24189978,0,0.0055812552301255,0
0.0057141422594142,150546.87615297,0,0.0057141422594142,0
0.0058470292887029,150521.94533976,0,0.0058470292887029,0
0.0059799163179916,150496.45031982,0,0.0059799163179916,0
0.0061128033472803,150470.39231614,0,0.0061128033472803,0
0.006245690376569,150443.77306308,0,0.006245690376569,0
0.0063785774058577,150416.59501473,0,0.0063785774058577,0
0.0065114644351464,150388.861638,0,0.0065114644351464,0
0.0066443514644351,150360.57782482,0,0.0066443514644351,0
0.0067772384937238,150331.75047213,0,0.0067772384937238,0
0.0069101255230126,150302.38929767,0,0.0069101255230126,0
0.0070430125523013,150272.5079876,0,0.0070430125523013,0
0.00717589958159,150242.12581083,0,0.00717589958159,0
0.0073087866108787,150211.26988995,0,0.0073087866108787,0
0.0074416736401674,150179.97839572,0,0.0074416736401674,0
0.0075745606694561,150148.30504081,0,0.0075745606694561,0
0.0077074476987448,150116.32540106,0,0.0077074476987448,0
0.0078403347280335,150084.14580767,0,0.0078403347280335,0
0.0079732217573222,150051.91585566,0,0.0079732217573222,0
0.0081061087866109,150019.63722589,0,0.0081061087866109,0
0.0082389958158996,149987.17465832,0,0.0082389958158996,0
0.0083718828451883,149954.43243902,0,0.0083718828451883,0
0.008504769874477,149921.34283438,0,0.008504769874477,0
0.0086376569037657,149887.85790779,0,0.0086376569037657,0
0.0087705439330544,149853.94372955,0,0.0087705439330544,0
0.0089034309623431,149819.5762801,0,0.0089034309623431,0
0.0090363179916318,149784.73855147,0,0.0090363179916318,0
0.0091692050209205,149749.41849632,0,0.0091692050209205,0
0.0093020920502092,149713.60757693,0,0.0093020920502092,0
0.0094349790794979,149677.29973839,0,0.0094349790794979,0
0.0095678661087866,149640.49068215,0,0.0095678661087866,0
0.0097007531380753,149603.17735193,0,0.0097007531380753,0
0.009833640167364,149565.35756995,0,0.009833640167364,0
0.0099665271966527,149527.02977939,0,0.0099665271966527,0
0.010099414225941,149488.19286206,0,0.010099414225941,0
0.01023230125523,149448.84600913,0,0.01023230125523,0
0.010365188284519,149408.98862936,0,0.010365188284519,0
0.010498075313808,149368.62028378,0,0.010498075313808,0
0.010630962343096,149327.74063873,0,0.010630962343096,0
0.010763849372385,149286.34943187,0,0.010763849372385,0
0.010896736401674,149244.44644672,0,0.010896736401674,0
0.011029623430962,149202.03149299,0,0.011029623430962,0
0.011162510460251,149159.10439006,0,0.011162510460251,0
0.01129539748954,149115.66495173,0,0.01129539748954,0
0.011428284518828,149071.71297037,0,0.011428284518828,0
0.011561171548117,149027.2481986,0,0.011561171548117,0
0.011694058577406,148982.27032624,0,0.011694058577406,0
0.011826945606695,148936.77894969,0,0.011826945606695,0
0.011959832635983,148890.77353025,0,0.011959832635983,0
0.012092719665272,148844.25333605,0,0.012092719665272,0
0.012225606694561,148797.21736087,0,0.012225606694561,0
0.012358493723849,148749.66420985,0,0.012358493723849,0
0.012491380753138,148701.59193837,0,0.012491380753138,0
0.012624267782427,148652.9978247,0,0.012624267782427,0
0.012757154811715,148603.87804883,0,0.012757154811715,0
0.012890041841004,148554.22723891,0,0.012890041841004,0
0.013022928870293,148504.03783036,0,0.013022928870293,0
0.013155815899582,148453.29916045,0,0.013155815899582,0
0.01328870292887,148401.99618897,0,0.01328870292887,0
0.013421589958159,148350.1076906,0,0.013421589958159,0
0.013554476987448,148297.60370079,0,0.013554476987448,0
0.013687364016736,148244.44190698,0,0.013687364016736,0
0.013820251046025,148190.56254932,0,0.013820251046025,0
0.013953138075314,148135.88121581,0,0.013953138075314,0
0.014086025104603,148080.27866194,0,0.014086025104603,0
0.014218912133891,148023.58642627,0,0.014218912133891,0
0.01435179916318,147965.56650591,0,0.01435179916318,0
0.014484686192469,147905.8826388,0,0.014484686192469,0
0.014617573221757,147844.05972686,0,0.014617573221757,0
0.014750460251046,147779.42650287,0,0.014750460251046,0
0.014883347280335,147711.03452167,0,0.014883347280335,0
0.015016234309623,147637.54369885,0,0.015016234309623,0
0.015149121338912,147557.06058324,0,0.015149121338912,0
0.015282008368201,147466.90984504,0,0.015282008368201,0
0.01541489539749,147363.31140207,0,0.01541489539749,0
0.015547782426778,147240.92421903,0,0.015547782426778,0
0.015680669456067,147092.20172509,0,0.015680669456067,0
0.015813556485356,146906.48106217,0,0.015813556485356,0
0.015946443514644,146668.69626555,0,0.015946443514644,0
0.016079330543933,146366.97014193,0,0.016079330543933,0
0.016212217573222,146015.04954419,0,0.016212217573222,0
0.01634510460251,145623.43925044,0,0.01634510460251,0
0.016477991631799,145200.16516653,0,0.016477991631799,0
0.016610878661088,144751.35787331,0,0.016610878661088,0
0.016743765690377,144281.69880152,0,0.016743765690377,0
0.016876652719665,143794.7613686,0,0.016876652719665,0
0.017009539748954,143293.27180143,0,0.017009539748954,0
0.017142426778243,142779.3085495,0,0.017142426778243,0
0.017275313807531,142254.45474407,0,0.017275313807531,0
0.01740820083682,141719.91475658,0,0.01740820083682,0
0.017541087866109,141176.60330814,0,0.017541087866109,0
0.017673974895397,140625.21359284,0,0.017673974895397,0
0.017806861924686,140066.26935647,0,0.017806861924686,0
0.017939748953975,139500.16470937,0,0.017939748953975,0
0.018072635983264,138927.19456269,0,0.018072635983264,0
0.018205523012552,138347.57789776,0,0.018205523012552,0
0.018338410041841,137761.47555814,0,0.018338410041841,0
0.01847129707113,137169.00385708,0,0.01847129707113,0
0.018604184100418,136570.24498924,0,0.018604184100418,0
0.018737071129707,135965.25500365,0,0.018737071129707,0
0.018869958158996,135354.06991831,0,0.018869958158996,0
0.019002845188285,134736.71042127,0,0.019002845188285,0
0.019135732217573,134113.18550107,0,0.019135732217573,0
0.019268619246862,133483.49527125,0,0.019268619246862,0
0.019401506276151,132847.63319514,0,0.019401506276151,0
0.019534393305439,132205.58787371,0,0.019534393305439,0
0.019667280334728,131557.34452717,0,0.019667280334728,0
0.019800167364017,130902.88627879,0,0.019800167364017,0
0.019933054393305,130242.19533491,0,0.019933054393305,0
0.020065941422594,129575.2541471,0,0.020065941422594,0
0.020198828451883,128902.04664108,0,0.020198828451883,0
0.020331715481172,128222.5596012,0,0.020331715481172,0
0.02046460251046,127536.78431004,0,0.02046460251046,0
0.020597489539749,126844.71856054,0,0.020597489539749,0
0.020730376569038,126146.36918378,0,0.020730376569038,0
0.020863263598326,125441.75527195,0,0.020863263598326,0
0.020996150627615,124730.91232427,0,0.020996150627615,0
0.021129037656904,124013.89760861,0,0.021129037656904,0
0.021261924686192,123290.79711601,0,0.021261924686192,0
0.021394811715481,122561.73459737,0,0.021394811715481,0
0.02152769874477,121826.88331636,0,0.02152769874477,0
0.021660585774059,121086.48134295,0,0.021660585774059,0
0.021793472803347,120340.85145862,0,0.021793472803347,0
0.021926359832636,119590.42706673,0,0.021926359832636,0
0.022059246861925,118835.78591978,0,0.022059246861925,0
0.022192133891213,118077.69402076,0,0.022192133891213,0
0.022325020920502,117317.16276463,0,0.022325020920502,0
0.022457907949791,116555.52330815,0,0.022457907949791,0
0.022590794979079,115794.52335576,0,0.022590794979079,0
0.022723682008368,115036.45310942,0,0.022723682008368,0
0.022856569037657,114284.30915875,0,0.022856569037657,0
0.022989456066946,113542.00772626,0,0.022989456066946,0
0.023122343096234,112814.66211337,0,0.023122343096234,0
0.023255230125523,112108.94365433,0,0.023255230125523,0
0.023388117154812,111433.55128786,0,0.023388117154812,0
0.0235210041841,110799.82240305,0,0.0235210041841,0
0.023653891213389,110222.5274328,0,0.023653891213389,0
0.023786778242678,109720.90344167,0,0.023786778242678,0
0.023919665271967,109319.99856863,0,0.023919665271967,0
0.024052552301255,109001.78231399,0,0.024052552301255,0
0.024185439330544,108742.12653211,0,0.024185439330544,0
0.024318326359833,108523.92258832,0,0.024318326359833,0
0.024451213389121,108335.03936834,0,0.024451213389121,0
0.02458410041841,108166.87527804,0,0.02458410041841,0
0.024716987447699,108013.33146578,0,0.024716987447699,0
0.024849874476987,107870.08373938,0,0.024849874476987,0
0.024982761506276,107734.06628901,0,0.024982761506276,0
0.025115648535565,107603.1056015,0,0.025115648535565,0
0.025248535564854,107475.66087461,0,0.025248535564854,0
0.025381422594142,107350.63994937,0,0.025381422594142,0
0.025514309623431,107227.26879138,0,0.025514309623431,0
0.02564719665272,107104.99894288,0,0.02564719665272,0
0.025780083682008,106983.44189921,0,0.025780083682008,0
0.025912970711297,106862.32257683,0,0.025912970711297,0
0.026045857740586,106741.4463188,0,0.026045857740586,0
0.026178744769874,106620.67549927,0,0.026178744769874,0
0.026311631799163,106499.91293455,0,0.026311631799163,0
0.026444518828452,106379.09012031,0,0.026444518828452,0
0.026577405857741,106258.15889112,0,0.026577405857741,0
0.026710292887029,106137.08550645,0,0.026710292887029,0
0.026843179916318,106015.84645737,0,0.026843179916318,0
0.026976066945607,105894.42549316,0,0.026976066945607,0
0.027108953974895,105772.81151311,0,0.027108953974895,0
0.027241841004184,105650.99707165,0,0.027241841004184,0
0.027374728033473,105528.97731843,0,0.027374728033473,0
0.027507615062762,105406.74924681,0,0.027507615062762,0
0.02764050209205,105284.31116099,0,0.02764050209205,0
0.027773389121339,105161.66229819,0,0.027773389121339,0
0.027906276150628,105038.80256076,0,0.027906276150628,0
0.028039163179916,104915.73232623,0,0.028039163179916,0
0.028172050209205,104792.45231259,0,0.028172050209205,0
0.028304937238494,104668.96348272,0,0.028304937238494,0
0.028437824267782,104545.26697657,0,0.028437824267782,0
0.028570711297071,104421.36406295,0,0.028570711297071,0
0.02870359832636,104297.25610516,0,0.02870359832636,0
0.028836485355649,104172.9445364,0,0.028836485355649,0
0.028969372384937,104048.43084194,0,0.028969372384937,0
0.029102259414226,103923.71654595,0,0.029102259414226,0
0.029235146443515,103798.80320142,0,0.029235146443515,0
0.029368033472803,103673.69238194,0,0.029368033472803,0
0.029500920502092,103548.38567432,0,0.029500920502092,0
0.029633807531381,103422.88467124,0,0.029633807531381,0
0.029766694560669,103297.1909629,0,0.029766694560669,0
0.029899581589958,103171.30612687,0,0.029899581589958,0
0.030032468619247,103045.23171478,0,0.030032468619247,0
0.030165355648536,102918.96923421,0,0.030165355648536,0
0.030298242677824,102792.52012381,0,0.030298242677824,0
0.030431129707113,102665.88571856,0,0.030431129707113,0
0.030564016736402,102539.067201,0,0.030564016736402,0
0.03069690376569,102412.06553276,0,0.03069690376569,0
0.030829790794979,102284.88135815,0,0.030829790794979,0
0.030962677824268,102157.51486845,0,0.030962677824268,0
0.031095564853556,102029.96561072,0,0.031095564853556,0
0.031228451882845,101902.2322185,0,0.031228451882845,0
0.031361338912134,101774.31203245,0,0.031361338912134,0
0.031494225941423,101646.20056591,0,0.031494225941423,0
0.031627112970711,101517.89075204,0,0.031627112970711,0
0.03176,101389.37188318,0,0.03176,0
