id,pressure,x,y,z
0,161973.8261685,0,0,0
0.0001328870292887,161971.50878538,0,0.0001328870292887,0
0.00026577405857741,161968.99761114,0,0.00026577405857741,0
0.00039866108786611,161966.15489401,0,0.00039866108786611,0
0.00053154811715481,161962.8827156,0,0.00053154811715481,0
0.00066443514644351,161959.11147122,0,0.00066443514644351,0
0.00079732217573222,161954.79168142,0,0.00079732217573222,0
0.00093020920502092,161949.88817147,0,0.00093020920502092,0
0.0010630962343096,161944.37593402,0,0.0010630962343096,0
0.0011959832635983,161938.23718824,0,0.0011959832635983,0
0.001328870292887,161931.45928935,0,0.001328870292887,0
0.0014617573221757,161924.03324272,0,0.0014617573221757,0
0.0015946443514644,161915.95264767,0,0.0015946443514644,0
0.0017275313807531,161907.21294674,0,0.0017275313807531,0
0.0018604184100418,161897.81089201,0,0.0018604184100418,0
0.0019933054393305,161887.74416577,0,0.0019933054393305,0
0.0021261924686192,161877.01111094,0,0.0021261924686192,0
0.0022590794979079,161865.61053942,0,0.0022590794979079,0
0.0023919665271967,161853.54159586,0,0.0023919665271967,0
0.0025248535564854,161840.80366083,0,0.0025248535564854,0
0.0026577405857741,161827.39628204,0,0.0026577405857741,0
0.0027906276150628,161813.31912544,0,0.0027906276150628,0
0.0029235146443515,161798.57194046,0,0.0029235146443515,0
0.0030564016736402,161783.15453536,0,0.0030564016736402,0
0.0031892887029289,161767.06675971,0,0.0031892887029289,0
0.0033221757322176,161750.30849203,0,0.0033221757322176,0
0.0034550627615063,161732.87963102,0,0.0034550627615063,0
0.003587949790795,161714.78008945,0,0.003587949790795,0
0.0037208368200837,161696.00978994,0,0.0037208368200837,0
0.0038537238493724,161676.56866215,0,0.0038537238493724,0
0.0039866108786611,161656.45664104,0,0.0039866108786611,0
0.0041194979079498,161635.67366603,0,0.0041194979079498,0
0.0042523849372385,161614.21968086,0,0.0042523849372385,0
0.0043852719665272,161592.09463427,0,0.0043852719665272,0
0.0045181589958159,161569.29848151,0,0.0045181589958159,0
0.0046510460251046,161545.83118684,0,0.0046510460251046,0
0.0047839330543933,161521.69272733,0,0.0047839330543933,0
0.004916820083682,161496.88309843,0,0.004916820083682,0
0.0050497071129707,161471.402322,0,0.0050497071129707,0
0.0051825941422594,161445.25045757,0,0.0051825941422594,0
0.0053154811715481,161418.42761841,0,0.0053154811715481,0
0.0054483682008368,161390.93399405,0,0.0054483682008368,0
0.0055812552301255,161362.76988215,0,0.0055812552301255,0
0.0057141422594142,161333.93573321,0,0.0057141422594142,0
0.0058470292887029,161304.43221355,0,0.0058470292887029,0
0.0059799163179916,161274.26029395,0,0.0059799163179916,0
0.0061128033472803,161243.42137431,0,0.0061128033472803,0
0.006245690376569,161211.91745898,0,0.006245690376569,0
0.0063785774058577,161179.75140352,0,0.0063785774058577,0
0.0065114644351464,161146.92726172,0,0.0065114644351464,0
0.0066443514644351,161113.45077375,0,0.0066443514644351,0
0.0067772384937238,161079.33005297,0,0.0067772384937238,0
0.0069101255230126,161044.57655189,0,0.0069101255230126,0
0.0070430125523013,161009.20642115,0,0.0070430125523013,0
0.00717589958159,160973.24242105,0,0.00717589958159,0
0.0073087866108787,160936.71661061,0,0.0073087866108787,0
0.0074416736401674,160899.67413009,0,0.0074416736401674,0
0.0075745606694561,160862.17852198,0,0.0075745606694561,0
0.0077074476987448,160824.31921583,0,0.0077074476987448,0
0.0078403347280335,160786.22205701,0,0.0078403347280335,0
0.0079732217573222,160748.06411724,0,0.0079732217573222,0
0.0081061087866109,160709.84735299,0,0.0081061087866109,0
0.0082389958158996,160671.41159101,0,0.0082389958158996,0
0.0083718828451883,160632.64347254,0,0.0083718828451883,0
0.008504769874477,160593.46276119,0,0.008504769874477,0
0.0086376569037657,160553.81265514,0,0.0086376569037657,0
0.0087705439330544,160513.65293268,0,0.0087705439330544,0
0.0089034309623431,160472.95510248,0,0.0089034309623431,0
0.0090363179916318,160431.69897218,0,0.0090363179916318,0
0.0091692050209205,160389.87022059,0,0.0091692050209205,0
0.0093020920502092,160347.45867989,0,0.0093020920502092,0
0.0094349790794979,160304.45712026,0,0.0094349790794979,0
0.0095678661087866,160260.86038986,0,0.0095678661087866,0
0.0097007531380753,160216.66480633,0,0.0097007531380753,0
0.009833640167364,160171.86772616,0,0.009833640167364,0
0.0099665271966527,160126.46723984,0,0.0099665271966527,0
0.010099414225941,160080.46195599,0,0.010099414225941,0
0.01023230125523,160033.85084844,0,0.01023230125523,0
0.010365188284519,159986.63314752,0,0.010365188284519,0
0.010498075313808,159938.80826273,0,0.010498075313808,0
0.010630962343096,159890.37572722,0,0.010630962343096,0
0.010763849372385,159841.33515743,0,0.010763849372385,0
0.010896736401674,159791.68622304,0,0.010896736401674,0
0.011029623430962,159741.42862362,0,0.011029623430962,0
0.011162510460251,159690.56206902,0,0.011162510460251,0
0.01129539748954,159639.0862613,0,0.01129539748954,0
0.011428284518828,159587.00087589,0,0.011428284518828,0
0.011561171548117,159534.30553985,0,0.011561171548117,0
0.011694058577406,159480.99980436,0,0.011694058577406,0
0.011826945606695,159427.08310843,0,0.011826945606695,0
0.011959832635983,159372.55472919,0,0.011959832635983,0
0.012092719665272,159317.41371287,0,0.012092719665272,0
0.012225606694561,159261.65877819,0,0.012225606694561,0
0.012358493723849,159205.28818038,0,0.012358493723849,0
0.012491380753138,159148.2995195,0,0.012491380753138,0
0.012624267782427,159090.68946991,0,0.012624267782427,0
0.012757154811715,159032.45339822,0,0.012757154811715,0
0.012890041841004,158973.58482364,0,0.012890041841004,0
0.013022928870293,158914.07465553,0,0.013022928870293,0
0.013155815899582,158853.91011632,0,0.013155815899582,0
0.01328870292887,158793.07321945,0,0.01328870292887,0
0.013421589958159,158731.5386191,0,0.013421589958159,0
0.013554476987448,158669.27057179,0,0.013554476987448,0
0.013687364016736,158606.21864339,0,0.013687364016736,0
0.013820251046025,158542.31164342,0,0.013820251046025,0
0.013953138075314,158477.44905451,0,0.013953138075314,0
0.014086025104603,158411.48892289,0,0.014086025104603,0
0.014218912133891,158344.23074832,0,0.014218912133891,0
0.01435179916318,158275.39130884,0,0.01435179916318,0
0.014484686192469,158204.57050276,0,0.014484686192469,0
0.014617573221757,158131.20308595,0,0.014617573221757,0
0.014750460251046,158054.4904802,0,0.014750460251046,0
0.014883347280335,157973.30442371,0,0.014883347280335,0
0.015016234309623,157886.05083706,0,0.015016234309623,0
0.015149121338912,157790.47747692,0,0.015149121338912,0
0.015282008368201,157683.40216726,0,0.015282008368201,0
0.01541489539749,157560.32881392,0,0.01541489539749,0
0.015547782426778,157414.90486798,0,0.015547782426778,0
0.015680669456067,157238.15477247,0,0.015680669456067,0
0.015813556485356,157017.3968969,0,0.015813556485356,0
0.015946443514644,156734.71328553,0,0.015946443514644,0
0.016079330543933,156375.96984714,0,0.016079330543933,0
0.016212217573222,155957.46861495,0,0.016212217573222,0
0.01634510460251,155491.6615987,0,0.01634510460251,0
0.016477991631799,154988.0575098,0,0.016477991631799,0
0.016610878661088,154453.91492714,0,0.016610878661088,0
0.016743765690377,153894.77219305,0,0.016743765690377,0
0.016876652719665,153314.85248992,0,0.016876652719665,0
0.017009539748954,152717.37349269,0,0.017009539748954,0
0.017142426778243,152104.78407014,0,0.017142426778243,0
0.017275313807531,151478.94521634,0,0.017275313807531,0
0.01740820083682,150841.2683474,0,0.01740820083682,0
0.017541087866109,150192.8210061,0,0.017541087866109,0
0.017673974895397,149534.40765182,0,0.017673974895397,0
0.017806861924686,148866.63140561,0,0.017806861924686,0
0.017939748953975,148189.94123793,0,0.017939748953975,0
0.018072635983264,147504.66802987,0,0.018072635983264,0
0.018205523012552,146811.05213128,0,0.018205523012552,0
0.018338410041841,146109.26442145,0,0.018338410041841,0
0.01847129707113,145399.42240649,0,0.01847129707113,0
0.018604184100418,144681.60252703,0,0.018604184100418,0
0.018737071129707,143955.8495744,0,0.018737071129707,0
0.018869958158996,143222.18390388,0,0.018869958158996,0
0.019002845188285,142480.60697297,0,0.019002845188285,0
0.019135732217573,141731.10561161,0,0.019135732217573,0
0.019268619246862,140973.65533858,0,0.019268619246862,0
0.019401506276151,140208.22296936,0,0.019401506276151,0
0.019534393305439,139434.76870916,0,0.019534393305439,0
0.019667280334728,138653.2478873,0,0.019667280334728,0
0.019800167364017,137863.6124631,0,0.019800167364017,0
0.019933054393305,137065.81241667,0,0.019933054393305,0
0.020065941422594,136259.79712938,0,0.020065941422594,0
0.020198828451883,135445.51685789,0,0.020198828451883,0
0.020331715481172,134622.9244118,0,0.020331715481172,0
0.02046460251046,133791.97715917,0,0.02046460251046,0
0.020597489539749,132952.63950722,0,0.020597489539749,0
0.020730376569038,132104.88603848,0,0.020730376569038,0
0.020863263598326,131248.70552881,0,0.020863263598326,0
0.020996150627615,130384.1061351,0,0.020996150627615,0
0.021129037656904,129511.12212241,0,0.021129037656904,0
0.021261924686192,128629.82260763,0,0.021261924686192,0
0.021394811715481,127740.32293728,0,0.021394811715481,0
0.02152769874477,126842.79950053,0,0.02152769874477,0
0.021660585774059,125937.5090178,0,0.021660585774059,0
0.021793472803347,125024.81365591,0,0.021793472803347,0
0.021926359832636,124105.21372576,0,0.021926359832636,0
0.022059246861925,123179.39024454,0,0.022059246861925,0
0.022192133891213,122248.26032809,0,0.022192133891213,0
0.022325020920502,121313.04926798,0,0.022325020920502,0
0.022457907949791,120375.38430233,0,0.022457907949791,0
0.022590794979079,119437.41658971,0,0.022590794979079,0
0.022723682008368,118501.97984394,0,0.022723682008368,0
0.022856569037657,117572.79661952,0,0.022856569037657,0
0.022989456066946,116654.74652476,0,0.022989456066946,0
0.023122343096234,115754.21491072,0,0.023122343096234,0
0.023255230125523,114879.54613104,0,0.023255230125523,0
0.023388117154812,114041.63267292,0,0.023388117154812,0
0.0235210041841,113254.68082051,0,0.0235210041841,0
0.023653891213389,112537.20567572,0,0.023653891213389,0
0.023786778242678,111913.32417313,0,0.023786778242678,0
0.023919665271967,111414.43527677,0,0.023919665271967,0
0.024052552301255,111018.19360181,0,0.024052552301255,0
0.024185439330544,110694.62307055,0,0.024185439330544,0
0.024318326359833,110422.47122825,0,0.024318326359833,0
0.024451213389121,110186.67071534,0,0.024451213389121,0
0.02458410041841,109976.53938851,0,0.02458410041841,0
0.024716987447699,109784.50418877,0,0.024716987447699,0
0.024849874476987,109605.1963612,0,0.024849874476987,0
0.024982761506276,109434.80996929,0,0.024982761506276,0
0.025115648535565,109270.64708738,0,0.025115648535565,0
0.025248535564854,109110.795348,0,0.025248535564854,0
0.025381422594142,108953.89932835,0,0.025381422594142,0
0.025514309623431,108798.99846786,0,0.025514309623431,0
0.02564719665272,108645.41215537,0,0.02564719665272,0
0.025780083682008,108492.65825892,0,0.025780083682008,0
0.025912970711297,108340.39536564,0,0.025912970711297,0
0.026045857740586,108188.38183157,0,0.026045857740586,0
0.026178744769874,108036.44674944,0,0.026178744769874,0
0.026311631799163,107884.4693657,0,0.026311631799163,0
0.026444518828452,107732.36448821,0,0.026444518828452,0
0.026577405857741,107580.07214068,0,0.026577405857741,0
0.026710292887029,107427.5502283,0,0.026710292887029,0
0.026843179916318,107274.76933796,0,0.026843179916318,0
0.026976066945607,107121.70905189,0,0.026976066945607,0
0.027108953974895,106968.35533427,0,0.027108953974895,0
0.027241841004184,106814.69867846,0,0.027241841004184,0
0.027374728033473,106660.73279359,0,0.027374728033473,0
0.027507615062762,106506.4536734,0,0.027507615062762,0
0.02764050209205,106351.85893616,0,0.02764050209205,0
0.027773389121339,106196.94735673,0,0.027773389121339,0
0.027906276150628,106041.71853479,0,0.027906276150628,0
0.028039163179916,105886.17265971,0,0.028039163179916,0
0.028172050209205,105730.31034377,0,0.028172050209205,0
0.028304937238494,105574.13250385,0,0.028304937238494,0
0.028437824267782,105417.64027754,0,0.028437824267782,0
0.028570711297071,105260.83496337,0,0.028570711297071,0
0.02870359832636,105103.7179783,0,0.02870359832636,0
0.028836485355649,104946.29082711,0,0.028836485355649,0
0.028969372384937,104788.55508014,0,0.028969372384937,0
0.029102259414226,104630.51235675,0,0.029102259414226,0
0.029235146443515,104472.1643123,0,0.029235146443515,0
0.029368033472803,104313.51262732,0,0.029368033472803,0
0.029500920502092,104154.55899737,0,0.029500920502092,0
0.029633807531381,103995.30512244,0,0.029633807531381,0
0.029766694560669,103835.75269463,0,0.029766694560669,0
0.029899581589958,103675.90338254,0,0.029899581589958,0
0.030032468619247,103515.75881056,0,0.030032468619247,0
0.030165355648536,103355.32053061,0,0.030165355648536,0
0.030298242677824,103194.58998282,0,0.030298242677824,0
0.030431129707113,103033.56844067,0,0.030431129707113,0
0.030564016736402,102872.25693385,0,0.030564016736402,0
0.03069690376569,102710.65613984,0,0.03069690376569,0
0.030829790794979,102548.76623124,0,0.030829790794979,0
0.030962677824268,102386.58666085,0,0.030962677824268,0
0.031095564853556,102224.11585883,0,0.031095564853556,0
0.031228451882845,102061.35080621,0,0.031228451882845,0
0.031361338912134,101898.28643411,0,0.031361338912134,0
0.031494225941423,101734.91477752,0,0.031494225941423,0
0.031627112970711,101571.22378329,0,0.031627112970711,0
0.03176,101407.19563115,0,0.03176,0
