id,pressure,x,y,z
0,473445.926488,0,0,0
0.0001328870292887,473435.50571411,0,0.0001328870292887,0
0.00026577405857741,473424.21347037,0,0.00026577405857741,0
0.00039866108786611,473411.43025564,0,0.00039866108786611,0
0.00053154811715481,473396.71566475,0,0.00053154811715481,0
0.00066443514644351,473379.75658776,0,0.00066443514644351,0
0.00079732217573222,473360.33038839,0,0.00079732217573222,0
0.00093020920502092,473338.27873021,0,0.00093020920502092,0
0.0010630962343096,473313.48897154,0,0.0010630962343096,0
0.0011959832635983,473285.88094058,0,0.0011959832635983,0
0.001328870292887,473255.39753481,0,0.001328870292887,0
0.0014617573221757,473221.99803894,0,0.0014617573221757,0
0.0015946443514644,473185.65337513,0,0.0015946443514644,0
0.0017275313807531,473146.3427268,0,0.0017275313807531,0
0.0018604184100418,473104.05113884,0,0.0018604184100418,0
0.0019933054393305,473058.76781171,0,0.0019933054393305,0
0.0021261924686192,473010.48488901,0,0.0021261924686192,0
0.0022590794979079,472959.19659552,0,0.0022590794979079,0
0.0023919665271967,472904.89862467,0,0.0023919665271967,0
0.0025248535564854,472847.58770308,0,0.0025248535564854,0
0.0026577405857741,472787.26128108,0,0.0026577405857741,0
0.0027906276150628,472723.91731278,0,0.0027906276150628,0
0.0029235146443515,472657.55409977,0,0.0029235146443515,0
0.0030564016736402,472588.17018016,0,0.0030564016736402,0
0.0031892887029289,472515.7642498,0,0.0031892887029289,0
0.0033221757322176,472440.33510651,0,0.0033221757322176,0
0.0034550627615063,472361.88161069,0,0.0034550627615063,0
0.003587949790795,472280.40265774,0,0.003587949790795,0
0.0037208368200837,472195.89715903,0,0.0037208368200837,0
0.0038537238493724,472108.36402918,0,0.0038537238493724,0
0.0039866108786611,472017.8021782,0,0.0039866108786611,0
0.0041194979079498,471924.21050754,0,0.0041194979079498,0
0.0042523849372385,471827.58790957,0,0.0042523849372385,0
0.0043852719665272,471727.93327055,0,0.0043852719665272,0
0.0045181589958159,471625.24547729,0,0.0045181589958159,0
0.0046510460251046,471519.52342844,0,0.0046510460251046,0
0.0047839330543933,471410.76605172,0,0.0047839330543933,0
0.004916820083682,471298.97232898,0,0.004916820083682,0
0.0050497071129707,471184.14133229,0,0.0050497071129707,0
0.0051825941422594,471066.27227515,0,0.0051825941422594,0
0.0053154811715481,470945.36458486,0,0.0053154811715481,0
0.0054483682008368,470821.41800471,0,0.0054483682008368,0
0.0055812552301255,470694.43273781,0,0.0055812552301255,0
0.0057141422594142,470564.4096497,0,0.0057141422594142,0
0.0058470292887029,470431.35055335,0,0.0058470292887029,0
0.0059799163179916,470295.25861031,0,0.0059799163179916,0
0.0061128033472803,470156.13889498,0,0.0061128033472803,0
0.006245690376569,470013.99918843,0,0.006245690376569,0
0.0063785774058577,469868.85109515,0,0.0063785774058577,0
0.0065114644351464,469720.71161388,0,0.0065114644351464,0
0.0066443514644351,469569.60534731,0,0.0066443514644351,0
0.0067772384937238,469415.56761035,0,0.0067772384937238,0
0.0069101255230126,469258.64880226,0,0.0069101255230126,0
0.0070430125523013,469098.92055673,0,0.0070430125523013,0
0.00717589958159,468936.48439249,0,0.00717589958159,0
0.0073087866108787,468771.48388156,0,0.0073087866108787,0
0.0074416736401674,468604.12176493,0,0.0074416736401674,0
0.0075745606694561,468434.68402755,0,0.0075745606694561,0
0.0077074476987448,468263.57376202,0,0.0077074476987448,0
0.0078403347280335,468091.35880075,0,0.0078403347280335,0
0.0079732217573222,467918.8387139,0,0.0079732217573222,0
0.0081061087866109,467746.02145301,0,0.0081061087866109,0
0.0082389958158996,467572.18190619,0,0.0082389958158996,0
0.0083718828451883,467396.80648105,0,0.0083718828451883,0
0.008504769874477,467219.53122288,0,0.008504769874477,0
0.0086376569037657,467040.09803318,0,0.0086376569037657,0
0.0087705439330544,466858.32369445,0,0.0087705439330544,0
0.0089034309623431,466674.07795559,0,0.0089034309623431,0
0.0090363179916318,466487.26802738,0,0.0090363179916318,0
0.0091692050209205,466297.82761325,0,0.0091692050209205,0
0.0093020920502092,466105.70914852,0,0.0093020920502092,0
0.0094349790794979,465910.87830964,0,0.0094349790794979,0
0.0095678661087866,465713.31012932,0,0.0095678661087866,0
0.0097007531380753,465512.98624768,0,0.0097007531380753,0
0.009833640167364,465309.89296711,0,0.009833640167364,0
0.0099665271966527,465104.01987531,0,0.0099665271966527,0
0.010099414225941,464895.35887034,0,0.010099414225941,0
0.01023230125523,464683.90346946,0,0.01023230125523,0
0.010365188284519,464469.64831838,0,0.010365188284519,0
0.010498075313808,464252.58884151,0,0.010498075313808,0
0.010630962343096,464032.72099095,0,0.010630962343096,0
0.010763849372385,463810.04106384,0,0.010763849372385,0
0.010896736401674,463584.54556606,0,0.010896736401674,0
0.011029623430962,463356.23110584,0,0.011029623430962,0
0.011162510460251,463125.09430431,0,0.011162510460251,0
0.01129539748954,462891.13171242,0,0.01129539748954,0
0.011428284518828,462654.33972401,0,0.011428284518828,0
0.011561171548117,462414.7144747,0,0.011561171548117,0
0.011694058577406,462172.25171438,0,0.011694058577406,0
0.011826945606695,461926.94663791,0,0.011826945606695,0
0.011959832635983,461678.79365369,0,0.011959832635983,0
0.012092719665272,461427.78606218,0,0.012092719665272,0
0.012225606694561,461173.91560565,0,0.012225606694561,0
0.012358493723849,460917.17183478,0,0.012358493723849,0
0.012491380753138,460657.54121591,0,0.012491380753138,0
0.012624267782427,460395.00587108,0,0.012624267782427,0
0.012757154811715,460129.54179911,0,0.012757154811715,0
0.012890041841004,459861.11636302,0,0.012890041841004,0
0.013022928870293,459589.68474088,0,0.013022928870293,0
0.013155815899582,459315.18491191,0,0.013155815899582,0
0.01328870292887,459037.53057331,0,0.01328870292887,0
0.013421589958159,458756.60113326,0,0.013421589958159,0
0.013554476987448,458472.2275735,0,0.013554476987448,0
0.013687364016736,458184.1724761,0,0.013687364016736,0
0.013820251046025,457892.10180581,0,0.013820251046025,0
0.013953138075314,457595.54504474,0,0.013953138075314,0
0.014086025104603,457293.83887148,0,0.014086025104603,0
0.014218912133891,456986.04759248,0,0.014218912133891,0
0.01435179916318,456670.85072979,0,0.01435179916318,0
0.014484686192469,456346.38420864,0,0.014484686192469,0
0.014617573221757,456010.01599312,0,0.014617573221757,0
0.014750460251046,455658.02911318,0,0.014750460251046,0
0.014883347280335,455285.17385931,0,0.014883347280335,0
0.015016234309623,454884.03514495,0,0.015016234309623,0
0.015149121338912,454444.13874962,0,0.015149121338912,0
0.015282008368201,453950.68867078,0,0.015282008368201,0
0.01541489539749,453382.7833334,0,0.01541489539749,0
0.015547782426778,452710.89557163,0,0.015547782426778,0
0.015680669456067,451893.31253192,0,0.015680669456067,0
0.015813556485356,450871.10625219,0,0.015813556485356,0
0.015946443514644,449561.02858865,0,0.015946443514644,0
0.016079330543933,447897.16366133,0,0.016079330543933,0
0.016212217573222,445953.88149358,0,0.016212217573222,0
0.01634510460251,443787.82233617,0,0.01634510460251,0
0.016477991631799,441442.08074131,0,0.016477991631799,0
0.016610878661088,438949.40075325,0,0.016610878661088,0
0.016743765690377,436334.61579973,0,0.016743765690377,0
0.016876652719665,433616.511687,0,0.016876652719665,0
0.017009539748954,430809.24894624,0,0.017009539748954,0
0.017142426778243,427923.44859091,0,0.017142426778243,0
0.017275313807531,424967.02076315,0,0.017275313807531,0
0.01740820083682,421945.79697312,0,0.01740820083682,0
0.017541087866109,418864.01229449,0,0.017541087866109,0
0.017673974895397,415724.6729259,0,0.017673974895397,0
0.017806861924686,412529.83616058,0,0.017806861924686,0
0.017939748953975,409280.82341475,0,0.017939748953975,0
0.018072635983264,405978.38208325,0,0.018072635983264,0
0.018205523012552,402622.80826124,0,0.018205523012552,0
0.018338410041841,399214.039523,0,0.018338410041841,0
0.01847129707113,395751.72477352,0,0.01847129707113,0
0.018604184100418,392235.27652819,0,0.018604184100418,0
0.018737071129707,388663.90970938,0,0.018737071129707,0
0.018869958158996,385036.67008289,0,0.018869958158996,0
0.019002845188285,381352.45472296,0,0.019002845188285,0
0.019135732217573,377610.02633762,0,0.019135732217573,0
0.019268619246862,373808.02286662,0,0.019268619246862,0
0.019401506276151,369944.96345149,0,0.019401506276151,0
0.019534393305439,366019.25164936,0,0.019534393305439,0
0.019667280334728,362029.17660203,0,0.019667280334728,0
0.019800167364017,357972.91276945,0,0.019800167364017,0
0.019933054393305,353848.51878388,0,0.019933054393305,0
0.020065941422594,349653.93597544,0,0.020065941422594,0
0.020198828451883,345386.98716104,0,0.020198828451883,0
0.020331715481172,341045.37638074,0,0.020331715481172,0
0.02046460251046,336626.69041587,0,0.02046460251046,0
0.020597489539749,332128.40314266,0,0.020597489539749,0
0.020730376569038,327547.88408104,0,0.020730376569038,0
0.020863263598326,322882.41291228,0,0.020863263598326,0
0.020996150627615,318129.20229157,0,0.020996150627615,0
0.021129037656904,313285.43201191,0,0.021129037656904,0
0.021261924686192,308348.29853451,0,0.021261924686192,0
0.021394811715481,303315.08515502,0,0.021394811715481,0
0.02152769874477,298183.25970938,0,0.02152769874477,0
0.021660585774059,292950.60884744,0,0.021660585774059,0
0.021793472803347,287615.42065619,0,0.021793472803347,0
0.021926359832636,282176.73097669,0,0.021926359832636,0
0.022059246861925,276634.65335307,0,0.022059246861925,0
0.022192133891213,270990.81846581,0,0.022192133891213,0
0.022325020920502,265248.95648864,0,0.022325020920502,0
0.022457907949791,259415.66551734,0,0.022457907949791,0
0.022590794979079,253501.42159743,0,0.022590794979079,0
0.022723682008368,247521.90160438,0,0.022723682008368,0
0.022856569037657,241499.71012537,0,0.022856569037657,0
0.022989456066946,235466.62654574,0,0.022989456066946,0
0.023122343096234,229466.51993593,0,0.023122343096234,0
0.023255230125523,223559.11846453,0,0.023255230125523,0
0.023388117154812,217824.86859285,0,0.023388117154812,0
0.0235210041841,212371.17925334,0,0.0235210041841,0
0.023653891213389,207340.42015778,0,0.023653891213389,0
0.023786778242678,202920.13491376,0,0.023786778242678,0
0.023919665271967,199356.04422947,0,0.023919665271967,0
0.024052552301255,196497.52446021,0,0.024052552301255,0
0.024185439330544,194135.32307834,0,0.024185439330544,0
0.024318326359833,192121.37148911,0,0.024318326359833,0
0.024451213389121,190350.89178762,0,0.024451213389121,0
0.02458410041841,188749.73170019,0,0.02458410041841,0
0.024716987447699,187265.40187739,0,0.024716987447699,0
0.024849874476987,185860.73419382,0,0.024849874476987,0
0.024982761506276,184509.39511632,0,0.024982761506276,0
0.025115648535565,183192.71179667,0,0.025115648535565,0
0.025248535564854,181897.42696933,0,0.025248535564854,0
0.025381422594142,180614.11093821,0,0.025381422594142,0
0.025514309623431,179336.03837859,0,0.025514309623431,0
0.02564719665272,178058.39391353,0,0.02564719665272,0
0.025780083682008,176777.71022114,0,0.025780083682008,0
0.025912970711297,175491.4705893,0,0.025912970711297,0
0.026045857740586,174197.82775926,0,0.026045857740586,0
0.026178744769874,172895.40499453,0,0.026178744769874,0
0.026311631799163,171583.15528296,0,0.026311631799163,0
0.026444518828452,170260.26163237,0,0.026444518828452,0
0.026577405857741,168926.06640905,0,0.026577405857741,0
0.026710292887029,167580.02119611,0,0.026710292887029,0
0.026843179916318,166221.65114369,0,0.026843179916318,0
0.026976066945607,164850.52954748,0,0.026976066945607,0
0.027108953974895,163466.25963913,0,0.027108953974895,0
0.027241841004184,162068.4614543,0,0.027241841004184,0
0.027374728033473,160656.76226698,0,0.027374728033473,0
0.027507615062762,159230.78951949,0,0.027507615062762,0
0.02764050209205,157790.16548834,0,0.02764050209205,0
0.027773389121339,156334.50314563,0,0.027773389121339,0
0.027906276150628,154863.40283036,0,0.027906276150628,0
0.028039163179916,153376.44945265,0,0.028039163179916,0
0.028172050209205,151873.21003012,0,0.028172050209205,0
0.028304937238494,150353.23140834,0,0.028304937238494,0
0.028437824267782,148816.03805387,0,0.028437824267782,0
0.028570711297071,147261.1298324,0,0.028570711297071,0
0.02870359832636,145687.97970017,0,0.02870359832636,0
0.028836485355649,144096.03124544,0,0.028836485355649,0
0.028969372384937,142484.69602035,0,0.028969372384937,0
0.029102259414226,140853.35060238,0,0.029102259414226,0
0.029235146443515,139201.33331923,0,0.029235146443515,0
0.029368033472803,137527.94056125,0,0.029368033472803,0
0.029500920502092,135832.42259104,0,0.029500920502092,0
0.029633807531381,134113.97873907,0,0.029633807531381,0
0.029766694560669,132371.75184611,0,0.029766694560669,0
0.029899581589958,130604.82177529,0,0.029899581589958,0
0.030032468619247,128812.19776555,0,0.030032468619247,0
0.030165355648536,126992.80932954,0,0.030165355648536,0
0.030298242677824,125145.49530682,0,0.030298242677824,0
0.030431129707113,123268.99055881,0,0.030431129707113,0
0.030564016736402,121361.90962378,0,0.030564016736402,0
0.03069690376569,119422.72642256,0,0.03069690376569,0
0.030829790794979,117449.74879727,0,0.030829790794979,0
0.030962677824268,115441.08624601,0,0.030962677824268,0
0.031095564853556,113394.60864683,0,0.031095564853556,0
0.031228451882845,111307.89298915,0,0.031228451882845,0
0.031361338912134,109178.15407562,0,0.031361338912134,0
0.031494225941423,107002.1537218,0,0.031494225941423,0
0.031627112970711,104776.08102825,0,0.031627112970711,0
0.03176,102495.39364531,0,0.03176,0
