id,pressure,x,y,z
0,363949.54626015,0,0,0
0.0001328870292887,363941.78362237,0,0.0001328870292887,0
0.00026577405857741,363933.37181186,0,0.00026577405857741,0
0.00039866108786611,363923.84935417,0,0.00039866108786611,0
0.00053154811715481,363912.88818864,0,0.00053154811715481,0
0.00066443514644351,363900.255081,0,0.00066443514644351,0
0.00079732217573222,363885.78419422,0,0.00079732217573222,0
0.00093020920502092,363869.35759119,0,0.00093020920502092,0
0.0010630962343096,363850.89137538,0,0.0010630962343096,0
0.0011959832635983,363830.32583947,0,0.0011959832635983,0
0.001328870292887,363807.61846261,0,0.001328870292887,0
0.0014617573221757,363782.7389329,0,0.0014617573221757,0
0.0015946443514644,363755.66560918,0,0.0015946443514644,0
0.0017275313807531,363726.38300608,0,0.0017275313807531,0
0.0018604184100418,363694.88000635,0,0.0018604184100418,0
0.0019933054393305,363661.14859011,0,0.0019933054393305,0
0.0021261924686192,363625.18293171,0,0.0021261924686192,0
0.0022590794979079,363586.97875766,0,0.0022590794979079,0
0.0023919665271967,363546.53289031,0,0.0023919665271967,0
0.0025248535564854,363503.84292351,0,0.0025248535564854,0
0.0026577405857741,363458.90699205,0,0.0026577405857741,0
0.0027906276150628,363411.72360784,0,0.0027906276150628,0
0.0029235146443515,363362.29154352,0,0.0029235146443515,0
0.0030564016736402,363310.60974976,0,0.0030564016736402,0
0.0031892887029289,363256.6772966,0,0.0031892887029289,0
0.0033221757322176,363200.49333193,0,0.0033221757322176,0
0.0034550627615063,363142.05705212,0,0.0034550627615063,0
0.003587949790795,363081.36768149,0,0.003587949790795,0
0.0037208368200837,363018.42445819,0,0.0037208368200837,0
0.0038537238493724,362953.22662464,0,0.0038537238493724,0
0.0039866108786611,362885.77342177,0,0.0039866108786611,0
0.0041194979079498,362816.06408601,0,0.0041194979079498,0
0.0042523849372385,362744.09784897,0,0.0042523849372385,0
0.0043852719665272,362669.87393961,0,0.0043852719665272,0
0.0045181589958159,362593.39158923,0,0.0045181589958159,0
0.0046510460251046,362514.65003989,0,0.0046510460251046,0
0.0047839330543933,362433.64855721,0,0.0047839330543933,0
0.004916820083682,362350.38644908,0,0.004916820083682,0
0.0050497071129707,362264.86309251,0,0.0050497071129707,0
0.0051825941422594,362177.07797173,0,0.0051825941422594,0
0.0053154811715481,362087.03073218,0,0.0053154811715481,0
0.0054483682008368,361994.72125646,0,0.0054483682008368,0
0.0055812552301255,361900.14977154,0,0.0055812552301255,0
0.0057141422594142,361803.31699949,0,0.0057141422594142,0
0.0058470292887029,361704.22436977,0,0.0058470292887029,0
0.0059799163179916,361602.87431782,0,0.0059799163179916,0
0.0061128033472803,361499.27070516,0,0.0061128033472803,0
0.006245690376569,361393.41941039,0,0.006245690376569,0
0.0063785774058577,361285.32916058,0,0.0063785774058577,0
0.0065114644351464,361175.01270075,0,0.0065114644351464,0
0.0066443514644351,361062.48843896,0,0.0066443514644351,0
0.0067772384937238,360947.78276036,0,0.0067772384937238,0
0.0069101255230126,360830.93328224,0,0.0069101255230126,0
0.0070430125523013,360711.99343272,0,0.0070430125523013,0
0.00717589958159,360591.03889114,0,0.00717589958159,0
0.0073087866108787,360468.17664735,0,0.0073087866108787,0
0.0074416736401674,360343.55774446,0,0.0074416736401674,0
0.0075745606694561,360217.39520294,0,0.0075745606694561,0
0.0077074476987448,360089.98923267,0,0.0077074476987448,0
0.0078403347280335,359961.76269603,0,0.0078403347280335,0
0.0079732217573222,359833.31098953,0,0.0079732217573222,0
0.0081061087866109,359704.64009387,0,0.0081061087866109,0
0.0082389958158996,359575.21018214,0,0.0082389958158996,0
0.0083718828451883,359444.63892588,0,0.0083718828451883,0
0.008504769874477,359312.65541875,0,0.008504769874477,0
0.0086376569037657,359179.06757728,0,0.0086376569037657,0
0.0087705439330544,359043.73907698,0,0.0087705439330544,0
0.0089034309623431,358906.5730347,0,0.0089034309623431,0
0.0090363179916318,358767.50046404,0,0.0090363179916318,0
0.0091692050209205,358626.47210755,0,0.0091692050209205,0
0.0093020920502092,358483.45265801,0,0.0093020920502092,0
0.0094349790794979,358338.41666992,0,0.0094349790794979,0
0.0095678661087866,358191.34566681,0,0.0095678661087866,0
0.0097007531380753,358042.22609437,0,0.0097007531380753,0
0.009833640167364,357891.04787202,0,0.009833640167364,0
0.0099665271966527,357737.80336771,0,0.0099665271966527,0
0.010099414225941,357582.48667181,0,0.010099414225941,0
0.01023230125523,357425.09308259,0,0.01023230125523,0
0.010365188284519,357265.61874074,0,0.010365188284519,0
0.010498075313808,357104.06036898,0,0.010498075313808,0
0.010630962343096,356940.41508517,0,0.010630962343096,0
0.010763849372385,356774.68026634,0,0.010763849372385,0
0.010896736401674,356606.85344725,0,0.010896736401674,0
0.011029623430962,356436.9322412,0,0.011029623430962,0
0.011162510460251,356264.91427357,0,0.011162510460251,0
0.01129539748954,356090.79711997,0,0.01129539748954,0
0.011428284518828,355914.57824169,0,0.011428284518828,0
0.011561171548117,355736.25491063,0,0.011561171548117,0
0.011694058577406,355555.82411456,0,0.011694058577406,0
0.011826945606695,355373.28243143,0,0.011826945606695,0
0.011959832635983,355188.62585754,0,0.011959832635983,0
0.012092719665272,355001.84956888,0,0.012092719665272,0
0.012225606694561,354812.94758673,0,0.012225606694561,0
0.012358493723849,354621.91230745,0,0.012358493723849,0
0.012491380753138,354428.73383953,0,0.012491380753138,0
0.012624267782427,354233.3990681,0,0.012624267782427,0
0.012757154811715,354035.89033394,0,0.012757154811715,0
0.012890041841004,353836.18356779,0,0.012890041841004,0
0.013022928870293,353634.24565489,0,0.013022928870293,0
0.013155815899582,353430.03071183,0,0.013155815899582,0
0.01328870292887,353223.4748267,0,0.01328870292887,0
0.013421589958159,353014.48862808,0,0.013421589958159,0
0.013554476987448,352802.94678662,0,0.013554476987448,0
0.013687364016736,352588.67318297,0,0.013687364016736,0
0.013820251046025,352371.419953,0,0.013820251046025,0
0.013953138075314,352150.8378832,0,0.013953138075314,0
0.014086025104603,351926.43458534,0,0.014086025104603,0
0.014218912133891,351697.51540628,0,0.014218912133891,0
0.01435179916318,351463.09994608,0,0.01435179916318,0
0.014484686192469,351221.80411628,0,0.014484686192469,0
0.014617573221757,350971.67351436,0,0.014617573221757,0
0.014750460251046,350709.94801936,0,0.014750460251046,0
0.014883347280335,350432.72921946,0,0.014883347280335,0
0.015016234309623,350134.51056459,0,0.015016234309623,0
0.015149121338912,349807.51358372,0,0.015149121338912,0
0.015282008368201,349440.75012028,0,0.015282008368201,0
0.01541489539749,349018.69750206,0,0.01541489539749,0
0.015547782426778,348519.42688921,0,0.015547782426778,0
0.015680669456067,347911.95911097,0,0.015680669456067,0
0.015813556485356,347152.52915792,0,0.015813556485356,0
0.015946443514644,346179.30895694,0,0.015946443514644,0
0.016079330543933,344943.36046233,0,0.016079330543933,0
0.016212217573222,343500.01454758,0,0.016212217573222,0
0.01634510460251,341891.42372517,0,0.01634510460251,0
0.016477991631799,340149.67172319,0,0.016477991631799,0
0.016610878661088,338299.1483732,0,0.016610878661088,0
0.016743765690377,336358.36330429,0,0.016743765690377,0
0.016876652719665,334341.33096515,0,0.016876652719665,0
0.017009539748954,332258.62819189,0,0.017009539748954,0
0.017142426778243,330118.20163415,0,0.017142426778243,0
0.017275313807531,327925.98409463,0,0.017275313807531,0
0.01740820083682,325686.36489114,0,0.01740820083682,0
0.017541087866109,323402.54869768,0,0.017541087866109,0
0.017673974895397,321076.82918312,0,0.017673974895397,0
0.017806861924686,318710.7975496,0,0.017806861924686,0
0.017939748953975,316305.50132356,0,0.017939748953975,0
0.018072635983264,313861.56512475,0,0.018072635983264,0
0.018205523012552,311379.28236737,0,0.018205523012552,0
0.018338410041841,308858.68473109,0,0.018338410041841,0
0.01847129707113,306299.59462359,0,0.01847129707113,0
0.018604184100418,303701.66462236,0,0.018604184100418,0
0.018737071129707,301064.40694272,0,0.018737071129707,0
0.018869958158996,298387.21526129,0,0.018869958158996,0
0.019002845188285,295669.38067905,0,0.019002845188285,0
0.019135732217573,292910.10319445,0,0.019135732217573,0
0.019268619246862,290108.4997455,0,0.019268619246862,0
0.019401506276151,287263.60964772,0,0.019401506276151,0
0.019534393305439,284374.39808516,0,0.019534393305439,0
0.019667280334728,281439.75819283,0,0.019667280334728,0
0.019800167364017,278458.51219144,0,0.019800167364017,0
0.019933054393305,275429.41199507,0,0.019933054393305,0
0.020065941422594,272351.13970507,0,0.020065941422594,0
0.020198828451883,269222.30843065,0,0.020198828451883,0
0.020331715481172,266041.46393837,0,0.020331715481172,0
0.02046460251046,262807.08773576,0,0.02046460251046,0
0.020597489539749,259517.60234402,0,0.020597489539749,0
0.020730376569038,256171.37972437,0,0.020730376569038,0
0.020863263598326,252766.75410461,0,0.020863263598326,0
0.020996150627615,249302.04082834,0,0.020996150627615,0
0.021129037656904,245775.56334493,0,0.021129037656904,0
0.021261924686192,242185.69110668,0,0.021261924686192,0
0.021394811715481,238530.89198637,0,0.021394811715481,0
0.02152769874477,234809.80392911,0,0.02152769874477,0
0.021660585774059,231021.33198029,0,0.021660585774059,0
0.021793472803347,227164.77868054,0,0.021793472803347,0
0.021926359832636,223240.01820672,0,0.021926359832636,0
0.022059246861925,219247.7277185,0,0.022059246861925,0
0.022192133891213,215189.69333352,0,0.022192133891213,0
0.022325020920502,211069.21324446,0,0.022325020920502,0
0.022457907949791,206891.627014,0,0.022457907949791,0
0.022590794979079,202665.00842089,0,0.022590794979079,0
0.022723682008368,198401.06986013,0,0.022723682008368,0
0.022856569037657,194116.33981497,0,0.022856569037657,0
0.022989456066946,189833.69205028,0,0.022989456066946,0
0.023122343096234,185584.32682912,0,0.023122343096234,0
0.023255230125523,181410.33174095,0,0.023255230125523,0
0.023388117154812,177367.98403434,0,0.023388117154812,0
0.0235210041841,173531.9994143,0,0.0235210041841,0
0.023653891213389,170000.98636555,0,0.023653891213389,0
0.023786778242678,166904.43328662,0,0.023786778242678,0
0.023919665271967,164411.6424548,0,0.023919665271967,0
0.024052552301255,162416.14480305,0,0.024052552301255,0
0.024185439330544,160770.97028316,0,0.024185439330544,0
0.024318326359833,159372.08603357,0,0.024318326359833,0
0.024451213389121,158145.8516026,0,0.024451213389121,0
0.02458410041841,157040.13698833,0,0.02458410041841,0
0.024716987447699,156018.03496256,0,0.024716987447699,0
0.024849874476987,155053.41042473,0,0.024849874476987,0
0.024982761506276,154127.75035184,0,0.024982761506276,0
0.025115648535565,153227.93443481,0,0.025115648535565,0
0.025248535564854,152344.65739664,0,0.025248535564854,0
0.025381422594142,151471.31254654,0,0.025381422594142,0
0.025514309623431,150603.20175622,0,0.025514309623431,0
0.02564719665272,149736.97643543,0,0.02564719665272,0
0.025780083682008,148870.24196979,0,0.025780083682008,0
0.025912970711297,148001.27782381,0,0.025912970711297,0
0.026045857740586,147128.83948427,0,0.026045857740586,0
0.026178744769874,146252.01830755,0,0.026178744769874,0
0.026311631799163,145370.14233352,0,0.026311631799163,0
0.026444518828452,144482.70608064,0,0.026444518828452,0
0.026577405857741,143589.32084243,0,0.026577405857741,0
0.026710292887029,142689.67948469,0,0.026710292887029,0
0.026843179916318,141783.5314984,0,0.026843179916318,0
0.026976066945607,140870.66530438,0,0.026976066945607,0
0.027108953974895,139950.89568454,0,0.027108953974895,0
0.027241841004184,139024.05483585,0,0.027241841004184,0
0.027374728033473,138089.98598324,0,0.027374728033473,0
0.027507615062762,137148.53879806,0,0.027507615062762,0
0.02764050209205,136199.56608936,0,0.02764050209205,0
0.027773389121339,135242.92139037,0,0.027773389121339,0
0.027906276150628,134278.45717262,0,0.027906276150628,0
0.028039163179916,133306.02349798,0,0.028039163179916,0
0.028172050209205,132325.46697355,0,0.028172050209205,0
0.028304937238494,131336.629913,0,0.028304937238494,0
0.028437824267782,130339.34963508,0,0.028437824267782,0
0.028570711297071,129333.45784878,0,0.028570711297071,0
0.02870359832636,128318.7800877,0,0.02870359832636,0
0.028836485355649,127295.13516466,0,0.028836485355649,0
0.028969372384937,126262.334623,0,0.028969372384937,0
0.029102259414226,125220.18216367,0,0.029102259414226,0
0.029235146443515,124168.47302797,0,0.029235146443515,0
0.029368033472803,123106.99331392,0,0.029368033472803,0
0.029500920502092,122035.51920058,0,0.029500920502092,0
0.029633807531381,120953.8160484,0,0.029633807531381,0
0.029766694560669,119861.63733343,0,0.029766694560669,0
0.029899581589958,118758.72335946,0,0.029899581589958,0
0.030032468619247,117644.79967182,0,0.030032468619247,0
0.030165355648536,116519.5750681,0,0.030165355648536,0
0.030298242677824,115382.73906133,0,0.030298242677824,0
0.030431129707113,114233.95859532,0,0.030431129707113,0
0.030564016736402,113072.8737338,0,0.030564016736402,0
0.03069690376569,111899.09193601,0,0.03069690376569,0
0.030829790794979,110712.18037882,0,0.030829790794979,0
0.030962677824268,109511.65557204,0,0.030962677824268,0
0.031095564853556,108296.96921582,0,0.031095564853556,0
0.031228451882845,107067.48883155,0,0.031228451882845,0
0.031361338912134,105822.47111556,0,0.031361338912134,0
0.031494225941423,104561.02514955,0,0.031494225941423,0
0.031627112970711,103282.06146334,0,0.031627112970711,0
0.03176,101984.22135425,0,0.03176,0
